   3.9062500e-02   3.1250000e-02   3.1250000e-02  -7.8125000e-03  -2.3437500e-02  -7.8125000e-03   7.8125000e-03   1.5625000e-02
  -4.6875000e-02  -2.3437500e-02  -2.3437500e-02   0.0000000e+00  -3.1250000e-02  -7.8125000e-03  -1.5625000e-02  -1.5625000e-02
  -2.3437500e-02  -3.1250000e-02  -3.9062500e-02  -7.8125000e-02  -1.5625000e-02   0.0000000e+00  -1.5625000e-02  -3.1250000e-02
  -1.5625000e-02  -7.8125000e-03  -7.8125000e-03   1.5625000e-02  -1.5625000e-02  -4.6875000e-02  -7.8125000e-03  -7.8125000e-03
   0.0000000e+00  -7.8125000e-03   7.8125000e-03  -7.8125000e-03   1.5625000e-02  -3.1250000e-02  -5.4687500e-02  -7.8125000e-03
   7.8125000e-03  -7.8125000e-03  -7.8125000e-03  -2.3437500e-02   2.3437500e-02   3.1250000e-02   2.3437500e-02  -7.0312500e-02
   0.0000000e+00   0.0000000e+00  -7.8125000e-03   7.8125000e-03  -1.5625000e-02   7.8125000e-03   7.8125000e-03   0.0000000e+00
   7.8125000e-03   1.5625000e-02  -1.5625000e-02  -3.1250000e-02  -2.3437500e-02  -1.5625000e-02   0.0000000e+00  -1.5625000e-02
   0.0000000e+00   7.8125000e-03  -7.8125000e-03  -2.3437500e-02   0.0000000e+00   0.0000000e+00  -3.1250000e-02   0.0000000e+00
   7.8125000e-03  -2.3437500e-02   1.5625000e-02   7.8125000e-03  -3.1250000e-02   0.0000000e+00   1.5625000e-02   4.6875000e-02
  -7.8125000e-03   0.0000000e+00  -7.8125000e-03   7.8125000e-03   3.1250000e-02   0.0000000e+00   7.8125000e-03  -1.5625000e-02
   2.3437500e-02   0.0000000e+00  -3.1250000e-02  -3.9062500e-02  -3.9062500e-02  -7.8125000e-03  -1.5625000e-02   3.1250000e-02
  -7.8125000e-03  -2.3437500e-02   7.8125000e-03   3.1250000e-02  -1.5625000e-02   7.8125000e-03   2.3437500e-02  -1.5625000e-02
   0.0000000e+00  -7.8125000e-03  -7.8125000e-03   2.3437500e-02   1.5625000e-02   7.8125000e-03   7.8125000e-03  -1.5625000e-02
  -3.1250000e-02  -2.3437500e-02  -4.6875000e-02  -3.9062500e-02   7.8125000e-03  -7.8125000e-03   0.0000000e+00   1.5625000e-02
   6.2500000e-02   2.3437500e-02  -1.5625000e-02  -7.8125000e-03   0.0000000e+00  -7.8125000e-03  -1.5625000e-02  -3.9062500e-02
  -2.3437500e-02   0.0000000e+00   0.0000000e+00  -3.1250000e-02  -3.1250000e-02   0.0000000e+00  -1.5625000e-02   0.0000000e+00
   2.3437500e-02   0.0000000e+00  -7.8125000e-03   0.0000000e+00  -7.8125000e-03   0.0000000e+00   1.5625000e-02   4.6875000e-02
  -1.5625000e-02   0.0000000e+00   0.0000000e+00  -7.8125000e-03  -3.1250000e-02  -2.3437500e-02  -1.5625000e-02  -2.3437500e-02
  -3.1250000e-02  -7.8125000e-03   1.5625000e-02   2.3437500e-02   3.9062500e-02   1.5625000e-02   3.1250000e-02   1.5625000e-02
   7.8125000e-03   2.3437500e-02   4.6875000e-02   6.2500000e-02  -1.5625000e-02  -2.3437500e-02  -7.8125000e-03  -1.5625000e-02
  -7.8125000e-03  -2.3437500e-02  -6.2500000e-02  -7.8125000e-02  -1.5625000e-02   2.3437500e-02   0.0000000e+00   1.5625000e-02
   0.0000000e+00  -7.8125000e-03  -3.1250000e-02  -3.9062500e-02  -2.3437500e-02  -7.8125000e-03  -7.8125000e-03  -7.8125000e-03
  -2.3437500e-02   1.5625000e-02   0.0000000e+00  -2.3437500e-02  -1.5625000e-02  -1.5625000e-02  -3.1250000e-02   0.0000000e+00
   0.0000000e+00   0.0000000e+00   7.8125000e-03   0.0000000e+00  -1.5625000e-02  -7.8125000e-03  -1.5625000e-02  -7.8125000e-03
  -2.3437500e-02  -2.3437500e-02  -1.5625000e-02  -3.1250000e-02   1.5625000e-02  -7.8125000e-03  -1.5625000e-02  -3.9062500e-02
  -7.8125000e-03  -7.8125000e-03  -1.5625000e-02   0.0000000e+00   7.8125000e-03  -7.8125000e-03   4.6875000e-02   7.8125000e-03
   7.8125000e-03   7.8125000e-03   1.5625000e-02   1.5625000e-02  -7.8125000e-03  -1.5625000e-02  -1.5625000e-02   0.0000000e+00
   7.8125000e-03   0.0000000e+00  -1.5625000e-02   1.5625000e-02   0.0000000e+00   1.5625000e-02   2.3437500e-02   3.9062500e-02
  -3.9062500e-02  -1.5625000e-02  -7.8125000e-03  -3.1250000e-02  -7.8125000e-03  -7.8125000e-03   0.0000000e+00   0.0000000e+00
   3.1250000e-02   7.8125000e-03  -1.5625000e-02  -1.5625000e-02  -1.5625000e-02  -3.1250000e-02   7.8125000e-03  -1.5625000e-02
   1.5625000e-02   7.8125000e-03  -1.5625000e-02   1.5625000e-02   7.8125000e-03  -3.9062500e-02  -4.6875000e-02  -7.8125000e-03
   0.0000000e+00  -1.5625000e-02   3.1250000e-02  -1.5625000e-02   0.0000000e+00  -7.8125000e-03  -1.5625000e-02  -7.8125000e-03
   0.0000000e+00  -1.5625000e-02  -2.3437500e-02  -7.8125000e-03  -2.3437500e-02   7.8125000e-03  -7.8125000e-03  -1.5625000e-02
  -2.3437500e-02  -2.3437500e-02  -3.9062500e-02  -3.1250000e-02  -7.8125000e-03  -4.6875000e-02  -3.1250000e-02  -1.5625000e-02
  -2.3437500e-02  -3.1250000e-02  -7.0312500e-02  -5.4687500e-02  -1.5625000e-02  -3.1250000e-02   0.0000000e+00  -1.5625000e-02
  -3.9062500e-02   7.8125000e-03   2.3437500e-02   2.3437500e-02   2.3437500e-02   2.3437500e-02  -7.8125000e-03  -7.8125000e-03
  -1.5625000e-02   1.5625000e-02   3.1250000e-02   8.5937500e-02   1.5625000e-02  -3.9062500e-02  -7.8125000e-03  -7.8125000e-03
  -7.8125000e-03   7.8125000e-03  -7.8125000e-03  -3.1250000e-02   7.8125000e-03   1.5625000e-02   7.8125000e-03   7.8125000e-03
  -7.8125000e-03  -2.3437500e-02  -2.3437500e-02  -2.3437500e-02   0.0000000e+00   0.0000000e+00   0.0000000e+00   0.0000000e+00
  -7.8125000e-03  -1.5625000e-02   1.5625000e-02   2.3437500e-02   0.0000000e+00   1.5625000e-02  -7.8125000e-03  -2.3437500e-02
  -2.3437500e-02  -7.8125000e-03   7.8125000e-03   1.5625000e-02  -2.3437500e-02   3.1250000e-02   1.5625000e-02  -7.8125000e-03
   4.6875000e-02   7.8125000e-03  -3.1250000e-02  -8.5937500e-02  -8.5937500e-02  -1.5625000e-02  -2.3437500e-02   0.0000000e+00
  -1.5625000e-02  -2.3437500e-02  -3.1250000e-02   2.3437500e-02   4.6875000e-02  -3.1250000e-02  -4.6875000e-02  -3.1250000e-02
  -7.8125000e-03  -7.8125000e-03  -4.6875000e-02  -3.9062500e-02   0.0000000e+00   1.5625000e-02  -1.5625000e-02   0.0000000e+00
  -1.5625000e-02   0.0000000e+00   1.5625000e-02   7.8125000e-03  -3.1250000e-02   0.0000000e+00  -2.3437500e-02  -7.8125000e-03
  -1.5625000e-02  -7.8125000e-03   3.9062500e-02   2.3437500e-02   7.8125000e-03  -1.5625000e-02  -3.1250000e-02   0.0000000e+00
   1.5625000e-02   7.8125000e-03   3.1250000e-02   0.0000000e+00  -3.9062500e-02   0.0000000e+00   2.3437500e-02   7.8125000e-03
   2.3437500e-02   2.3437500e-02   7.8125000e-03   0.0000000e+00   7.8125000e-03  -7.8125000e-03  -1.5625000e-02   7.8125000e-03
   1.5625000e-02   0.0000000e+00   0.0000000e+00   1.5625000e-02   2.3437500e-02  -7.8125000e-03   7.8125000e-03   7.8125000e-03
  -3.9062500e-02  -3.1250000e-02  -5.4687500e-02   7.8125000e-03  -7.8125000e-03   0.0000000e+00   0.0000000e+00  -7.8125000e-03
   0.0000000e+00  -7.8125000e-03  -2.3437500e-02  -3.9062500e-02  -7.8125000e-03   1.5625000e-02   1.5625000e-02  -1.5625000e-02
  -2.3437500e-02   7.8125000e-03  -1.5625000e-02  -5.4687500e-02  -3.1250000e-02  -5.4687500e-02  -4.6875000e-02  -1.2500000e-01
   1.5625000e-02  -2.3437500e-02  -2.3437500e-02  -1.5625000e-02   7.8125000e-03  -1.5625000e-02   7.8125000e-03  -7.8125000e-03
   0.0000000e+00  -1.5625000e-02  -7.8125000e-03   1.5625000e-02  -1.5625000e-02  -5.4687500e-02  -3.1250000e-02  -2.3437500e-02
  -7.8125000e-03  -3.1250000e-02  -7.0312500e-02  -5.4687500e-02  -7.8125000e-03  -2.3437500e-02  -1.5625000e-02  -1.5625000e-02
  -7.8125000e-03  -3.9062500e-02   7.8125000e-03   3.1250000e-02   1.5625000e-02   1.5625000e-02   1.5625000e-02   1.5625000e-02
  -2.3437500e-02  -7.8125000e-03   3.1250000e-02   7.8125000e-03   7.8125000e-03   2.3437500e-02   1.5625000e-02  -7.8125000e-03
  -7.8125000e-03   7.8125000e-03   1.5625000e-02   2.3437500e-02  -3.9062500e-02   1.5625000e-02   1.5625000e-02  -2.3437500e-02
  -1.5625000e-02  -2.3437500e-02  -3.9062500e-02  -7.0312500e-02  -1.5625000e-02  -3.1250000e-02  -1.5625000e-02   7.8125000e-03
  -6.2500000e-02  -3.9062500e-02  -2.3437500e-02   3.1250000e-02   2.3437500e-02  -7.8125000e-03  -3.1250000e-02  -3.1250000e-02
   1.0937500e-01   7.8125000e-03   7.8125000e-03  -2.3437500e-02  -2.3437500e-02  -7.8125000e-03  -1.5625000e-02   3.1250000e-02
  -7.8125000e-03  -7.8125000e-03   3.1250000e-02   2.3437500e-02   1.5625000e-02   7.8125000e-03  -1.5625000e-02  -2.3437500e-02
   2.3437500e-02   2.3437500e-02   3.9062500e-02   3.1250000e-02   1.5625000e-02  -3.1250000e-02   3.1250000e-02   7.8125000e-03
   0.0000000e+00   0.0000000e+00  -7.8125000e-03   7.8125000e-03  -1.5625000e-02   0.0000000e+00   2.3437500e-02   1.5625000e-02
  -2.3437500e-02   7.8125000e-03   0.0000000e+00   0.0000000e+00   7.8125000e-03   1.5625000e-02   7.8125000e-03  -7.8125000e-03
   1.5625000e-02   0.0000000e+00  -5.4687500e-02  -1.5625000e-02   1.5625000e-02   7.8125000e-03   3.1250000e-02   1.5625000e-02
  -4.6875000e-02  -3.1250000e-02   0.0000000e+00  -7.8125000e-03  -2.3437500e-02   7.8125000e-03  -1.5625000e-02  -3.1250000e-02
   0.0000000e+00   0.0000000e+00  -7.8125000e-03  -2.3437500e-02  -4.6875000e-02   7.8125000e-03  -7.8125000e-03  -1.5625000e-02
  -1.5625000e-02  -2.3437500e-02   1.5625000e-02   3.1250000e-02  -2.3437500e-02  -2.3437500e-02   0.0000000e+00  -7.8125000e-03
   0.0000000e+00   7.8125000e-03   0.0000000e+00  -2.3437500e-02  -3.1250000e-02  -7.8125000e-03   1.5625000e-02   3.1250000e-02
  -7.8125000e-03   1.5625000e-02  -3.1250000e-02   0.0000000e+00   5.4687500e-02   7.8125000e-03  -7.8125000e-03   0.0000000e+00
  -4.6875000e-02   0.0000000e+00  -7.8125000e-03   2.3437500e-02   5.4687500e-02   1.5625000e-02  -7.8125000e-03  -1.5625000e-02
   6.2500000e-02   4.6875000e-02   0.0000000e+00  -5.4687500e-02  -7.8125000e-03   7.8125000e-03  -3.1250000e-02   0.0000000e+00
   1.5625000e-02   0.0000000e+00  -7.8125000e-03   1.5625000e-02  -7.8125000e-03   3.1250000e-02   3.1250000e-02   7.8125000e-03
  -7.8125000e-03  -2.3437500e-02   7.8125000e-03  -3.1250000e-02  -3.9062500e-02  -3.9062500e-02   0.0000000e+00   3.1250000e-02
  -2.3437500e-02   0.0000000e+00  -2.3437500e-02  -3.1250000e-02  -4.6875000e-02   1.5625000e-02   7.8125000e-03  -3.9062500e-02
   0.0000000e+00  -3.1250000e-02   1.5625000e-02   3.9062500e-02   0.0000000e+00  -3.1250000e-02  -3.9062500e-02   7.8125000e-03
   2.3437500e-02   7.8125000e-03   2.3437500e-02  -4.6875000e-02  -7.8125000e-03   0.0000000e+00  -5.4687500e-02   7.8125000e-03
  -7.8125000e-03  -1.5625000e-02  -2.3437500e-02  -4.6875000e-02  -3.9062500e-02   0.0000000e+00   3.9062500e-02  -3.1250000e-02
   1.5625000e-02  -1.5625000e-02   0.0000000e+00   0.0000000e+00   3.9062500e-02  -7.8125000e-03  -2.3437500e-02   2.3437500e-02
  -7.0312500e-02  -1.5625000e-02  -3.1250000e-02  -1.5625000e-02   7.8125000e-03   2.3437500e-02  -3.1250000e-02  -2.3437500e-02
   2.3437500e-02   7.8125000e-03   0.0000000e+00  -7.8125000e-03   0.0000000e+00  -5.4687500e-02  -3.1250000e-02   1.5625000e-02
   7.8125000e-03  -1.5625000e-02  -5.4687500e-02  -7.0312500e-02  -3.1250000e-02   2.3437500e-02   5.4687500e-02   7.8125000e-03
  -1.5625000e-02   2.3437500e-02   7.8125000e-03   3.1250000e-02   7.8125000e-03   0.0000000e+00  -1.5625000e-02  -7.8125000e-03
   7.8125000e-03   3.9062500e-02   3.1250000e-02   3.9062500e-02   1.5625000e-02  -7.8125000e-03   7.8125000e-03   7.8125000e-03
  -2.3437500e-02   0.0000000e+00   0.0000000e+00   3.9062500e-02   3.1250000e-02   0.0000000e+00   2.3437500e-02   1.5625000e-02
  -3.1250000e-02  -3.1250000e-02  -7.8125000e-03  -4.6875000e-02  -7.0312500e-02  -7.8125000e-03  -3.1250000e-02  -7.8125000e-03
  -2.3437500e-02  -4.6875000e-02  -7.8125000e-03   1.5625000e-02   2.3437500e-02  -5.4687500e-02  -1.5625000e-02  -7.8125000e-03
   7.8125000e-03  -3.1250000e-02  -3.9062500e-02  -2.3437500e-02   0.0000000e+00   0.0000000e+00  -7.8125000e-03  -1.5625000e-02
  -4.6875000e-02  -7.8125000e-03  -2.3437500e-02  -3.9062500e-02  -4.6875000e-02   1.5625000e-02   7.8125000e-03  -1.5625000e-02
  -7.8125000e-03   0.0000000e+00  -7.8125000e-03  -3.9062500e-02  -1.5625000e-02  -5.4687500e-02  -3.1250000e-02  -7.8125000e-03
   3.1250000e-02   0.0000000e+00   6.2500000e-02   7.0312500e-02   3.9062500e-02   0.0000000e+00   0.0000000e+00   1.5625000e-02
  -3.9062500e-02  -2.3437500e-02  -7.8125000e-03  -2.3437500e-02  -7.8125000e-03   2.3437500e-02   7.8125000e-03  -2.3437500e-02
  -7.8125000e-03  -3.1250000e-02  -4.6875000e-02  -3.1250000e-02   7.8125000e-03   1.5625000e-02   4.6875000e-02   0.0000000e+00
  -1.0156250e-01  -7.0312500e-02   7.8125000e-03   3.1250000e-02  -1.5625000e-02  -7.8125000e-02  -1.0937500e-01  -5.4687500e-02
   9.3750000e-02   4.6875000e-02   7.8125000e-03   1.5625000e-02   0.0000000e+00   2.3437500e-02   4.6875000e-02   3.1250000e-02
   7.8125000e-03   7.8125000e-03  -3.1250000e-02  -3.9062500e-02   3.9062500e-02   0.0000000e+00   1.5625000e-02   7.8125000e-03
   5.4687500e-02   2.3437500e-02  -1.5625000e-02  -1.5625000e-02  -1.5625000e-02  -7.8125000e-03   1.5625000e-02   7.8125000e-03
  -6.2500000e-02   7.8125000e-03   2.3437500e-02   1.5625000e-02  -7.8125000e-03   7.8125000e-03   3.1250000e-02  -1.5625000e-02
  -7.8125000e-03  -3.1250000e-02  -3.9062500e-02  -1.5625000e-02  -3.1250000e-02   0.0000000e+00  -3.1250000e-02   1.5625000e-02
   7.8125000e-03   0.0000000e+00   0.0000000e+00   0.0000000e+00   3.9062500e-02   3.9062500e-02   3.1250000e-02   0.0000000e+00
  -6.2500000e-02  -9.3750000e-02  -3.1250000e-02  -6.2500000e-02  -7.8125000e-02   1.5625000e-02   2.3437500e-02  -3.1250000e-02
   3.1250000e-02   4.6875000e-02  -3.9062500e-02  -7.8125000e-03  -7.8125000e-03   0.0000000e+00   0.0000000e+00   7.8125000e-03
  -4.6875000e-02   4.6875000e-02   5.4687500e-02   4.6875000e-02   8.5937500e-02  -3.9062500e-02   0.0000000e+00  -4.6875000e-02
  -3.9062500e-02  -3.9062500e-02   0.0000000e+00  -1.5625000e-02  -2.3437500e-02  -2.3437500e-02  -2.3437500e-02  -7.8125000e-03
   2.3437500e-02  -2.3437500e-02  -3.9062500e-02  -3.9062500e-02  -1.5625000e-02  -3.9062500e-02  -3.9062500e-02  -1.5625000e-02
   1.5625000e-02   7.8125000e-03  -3.1250000e-02  -4.6875000e-02  -3.1250000e-02  -1.5625000e-02  -2.3437500e-02  -7.8125000e-03
  -7.8125000e-03  -1.5625000e-02   1.5625000e-02   0.0000000e+00  -3.1250000e-02  -1.5625000e-02   7.8125000e-03   0.0000000e+00
   3.1250000e-02  -2.3437500e-02  -4.6875000e-02  -6.2500000e-02  -9.3750000e-02  -7.8125000e-03   7.8125000e-03   1.5625000e-02
   3.1250000e-02   3.1250000e-02   3.1250000e-02   3.1250000e-02   3.9062500e-02   1.5625000e-02  -3.1250000e-02   0.0000000e+00
   1.5625000e-02   7.8125000e-03  -1.5625000e-02  -5.4687500e-02  -1.8750000e-01  -7.8125000e-03  -1.5625000e-02   7.8125000e-03
  -2.3437500e-02  -3.9062500e-02  -5.4687500e-02  -7.0312500e-02   7.8125000e-02   1.5625000e-02  -1.5625000e-02   3.1250000e-02
   7.8125000e-03   8.5937500e-02   2.3437500e-02   7.0312500e-02   5.4687500e-02   7.8125000e-03   4.6875000e-02   3.1250000e-02
  -7.8125000e-03  -3.9062500e-02  -3.9062500e-02  -4.6875000e-02  -3.1250000e-02  -5.4687500e-02   7.8125000e-03   1.5625000e-02
   3.1250000e-02  -1.5625000e-02  -7.8125000e-02   0.0000000e+00   2.3437500e-02  -6.2500000e-02  -4.6875000e-02  -5.4687500e-02
  -3.9062500e-02  -2.3437500e-02   0.0000000e+00  -3.1250000e-02  -5.4687500e-02   1.5625000e-02  -2.3437500e-02  -2.3437500e-02
  -7.0312500e-02  -1.0156250e-01  -5.4687500e-02  -2.3437500e-02   0.0000000e+00   1.2500000e-01   0.0000000e+00  -3.1250000e-02
   1.5625000e-02   2.3437500e-02  -3.1250000e-02  -8.5937500e-02  -1.7968750e-01   5.4687500e-02   1.5625000e-02   3.1250000e-02
   9.3750000e-02   1.0156250e-01   7.8125000e-02   1.5625000e-01   3.2031250e-01   0.0000000e+00  -6.2500000e-02   4.6875000e-02
  -3.1250000e-02  -3.1250000e-02  -5.4687500e-02  -4.6875000e-02  -1.1718750e-01  -3.9062500e-02  -5.4687500e-02  -3.9062500e-02
   0.0000000e+00   7.8125000e-03   1.5625000e-02  -3.1250000e-02   7.8125000e-03   0.0000000e+00   4.6875000e-02   2.3437500e-02
   7.8125000e-03   8.5937500e-02   3.1250000e-02   4.6875000e-02   3.1250000e-02  -3.9062500e-02  -1.5625000e-02   2.3437500e-02
   7.8125000e-03   0.0000000e+00   7.8125000e-03   2.3437500e-02   7.8125000e-03   3.9062500e-02   4.6875000e-02   7.8125000e-03
  -1.5625000e-02   0.0000000e+00   3.9062500e-02   3.9062500e-02  -7.8125000e-03   7.8125000e-03   0.0000000e+00  -3.1250000e-02
  -1.5625000e-02   0.0000000e+00  -7.8125000e-02  -9.3750000e-02  -1.5625000e-02   3.1250000e-02   4.6875000e-02  -1.5625000e-02
   2.3437500e-02   0.0000000e+00  -7.8125000e-03  -2.3437500e-02  -2.3437500e-02   7.8125000e-03   1.5625000e-02   1.5625000e-02
  -2.3437500e-02  -3.1250000e-02  -7.8125000e-03   3.1250000e-02  -7.8125000e-03   0.0000000e+00   7.8125000e-03   7.8125000e-03
  -1.5625000e-02  -1.5625000e-02  -3.9062500e-02  -1.0937500e-01  -7.8125000e-03  -1.5625000e-02   7.8125000e-03  -3.9062500e-02
  -1.5625000e-02  -7.8125000e-03  -7.8125000e-03  -7.8125000e-03  -1.0937500e-01  -7.8125000e-03   2.3437500e-02  -1.5625000e-02
   0.0000000e+00   1.5625000e-02   2.3437500e-02   6.2500000e-02   1.0156250e-01   1.5625000e-02  -3.1250000e-02   1.5625000e-02
  -2.3437500e-02  -7.8125000e-02  -3.1250000e-02  -7.0312500e-02  -1.0156250e-01  -3.9062500e-02   3.1250000e-02   3.1250000e-02
   0.0000000e+00   1.5625000e-02  -3.1250000e-02  -5.4687500e-02   2.3437500e-02  -7.8125000e-02  -1.5625000e-02  -2.3437500e-02
  -8.5937500e-02  -1.5625000e-02   2.3437500e-02   3.1250000e-02  -2.3437500e-02  -6.2500000e-02   3.1250000e-02   1.5625000e-02
   4.6875000e-02   3.9062500e-02   4.6875000e-02   3.9062500e-02   0.0000000e+00  -2.3437500e-02  -7.0312500e-02  -2.3437500e-02
  -1.4062500e-01  -7.0312500e-02   7.8125000e-03   9.3750000e-02   1.2500000e-01   1.8750000e-01   9.3750000e-02   0.0000000e+00
   2.1875000e-01   1.1718750e-01  -7.8125000e-03  -2.3437500e-02  -1.3281250e-01   5.4687500e-02   7.8125000e-03   3.1250000e-02
   3.9062500e-02   1.5625000e-02  -1.5625000e-02  -3.1250000e-02   4.6875000e-02   3.1250000e-02  -3.1250000e-02  -7.8125000e-03
   4.6875000e-02   7.8125000e-03  -7.8125000e-03  -1.5625000e-02  -2.3437500e-02   7.8125000e-03   7.8125000e-03   2.3437500e-02
  -7.8125000e-03  -2.3437500e-02  -1.5625000e-02  -7.8125000e-03  -5.4687500e-02  -1.5625000e-02  -2.3437500e-02   0.0000000e+00
  -9.3750000e-02  -7.8125000e-02  -3.1250000e-02  -1.5625000e-02   0.0000000e+00   2.3437500e-02   3.1250000e-02   3.1250000e-02
  -1.5625000e-02   7.8125000e-03  -7.8125000e-03  -2.3437500e-02  -7.8125000e-03   3.9062500e-02   0.0000000e+00  -4.6875000e-02
  -3.9062500e-02  -3.9062500e-02  -1.5625000e-02  -2.3437500e-02  -3.9062500e-02   7.8125000e-03  -1.5625000e-02   0.0000000e+00
   3.1250000e-02   2.3437500e-02   3.1250000e-02   3.1250000e-02   2.3437500e-02  -3.1250000e-02  -4.6875000e-02   0.0000000e+00
  -3.1250000e-02  -1.5625000e-02   1.5625000e-02   5.4687500e-02   3.1250000e-02   1.5625000e-02   1.5625000e-02  -1.5625000e-02
   5.4687500e-02   4.6875000e-02   2.3437500e-02   1.5625000e-02   4.6875000e-02   0.0000000e+00  -3.1250000e-02  -7.8125000e-03
  -1.5625000e-02  -1.5625000e-02   0.0000000e+00   7.8125000e-03   6.2500000e-02   4.6875000e-02  -7.8125000e-03  -2.3437500e-02
  -5.4687500e-02  -4.6875000e-02  -3.1250000e-02  -7.0312500e-02  -1.3281250e-01  -1.5625000e-02  -7.8125000e-03  -1.5625000e-02
   3.1250000e-02   0.0000000e+00  -1.5625000e-02  -7.8125000e-03   3.1250000e-02   1.5625000e-02   2.3437500e-02   7.8125000e-03
  -1.5625000e-02  -3.1250000e-02  -7.8125000e-03   0.0000000e+00  -2.3437500e-02   7.8125000e-03   3.1250000e-02   0.0000000e+00
  -7.8125000e-03   3.1250000e-02  -3.9062500e-02  -7.0312500e-02  -9.3750000e-02  -3.9062500e-02  -1.5625000e-02  -1.5625000e-02
   0.0000000e+00   7.8125000e-03   3.1250000e-02  -7.8125000e-03  -3.9062500e-02  -7.8125000e-03  -3.1250000e-02  -2.3437500e-02
  -3.1250000e-02   0.0000000e+00   1.5625000e-02   3.9062500e-02   3.9062500e-02   2.3437500e-02   9.3750000e-02  -7.8125000e-03
   7.0312500e-02   3.1250000e-02  -7.8125000e-03  -7.8125000e-03  -6.2500000e-02  -5.4687500e-02  -8.5937500e-02   3.1250000e-02
  -5.4687500e-02   1.5625000e-02   5.4687500e-02   1.5625000e-02  -1.0937500e-01  -1.5625000e-02  -9.3750000e-02  -9.3750000e-02
   1.5625000e-01   1.5625000e-02   7.8125000e-03   3.1250000e-02   1.4062500e-01   1.5625000e-02   4.6875000e-02   9.3750000e-02
  -7.8125000e-03  -2.3437500e-02   7.8125000e-03   2.3437500e-02   3.9062500e-02  -2.3437500e-02  -1.5625000e-02  -7.8125000e-03
   5.4687500e-02   1.5625000e-02  -7.8125000e-03  -3.1250000e-02  -5.4687500e-02   2.3437500e-02  -2.3437500e-02   2.3437500e-02
  -6.2500000e-02  -2.3437500e-02  -3.1250000e-02   7.8125000e-03  -3.9062500e-02  -2.3437500e-02   0.0000000e+00   0.0000000e+00
  -7.8125000e-02  -3.1250000e-02  -3.9062500e-02  -7.0312500e-02   3.1250000e-02  -7.8125000e-03  -2.3437500e-02  -3.1250000e-02
   5.4687500e-02   2.3437500e-02   2.3437500e-02   3.1250000e-02  -1.5625000e-02  -1.6406250e-01  -7.0312500e-02   1.5625000e-02
  -7.8125000e-03   0.0000000e+00   0.0000000e+00   0.0000000e+00  -8.5937500e-02   1.1718750e-01   6.2500000e-02   0.0000000e+00
   4.6875000e-02   7.8125000e-03   0.0000000e+00   0.0000000e+00   7.0312500e-02  -2.3437500e-02  -1.5625000e-02   1.5625000e-02
  -3.1250000e-02   1.5625000e-02   7.8125000e-03  -2.3437500e-02  -1.5625000e-02  -1.5625000e-02  -1.5625000e-02  -4.6875000e-02
   5.4687500e-02   3.1250000e-02   7.8125000e-03   0.0000000e+00   2.3437500e-02   7.8125000e-03   1.5625000e-02   2.3437500e-02
   0.0000000e+00   3.9062500e-02   3.1250000e-02   5.4687500e-02  -1.5625000e-02   2.3437500e-02   3.1250000e-02   7.8125000e-03
  -9.3750000e-02  -7.8125000e-02  -1.5625000e-02  -4.6875000e-02  -7.8125000e-03  -7.8125000e-03  -2.3437500e-02  -3.9062500e-02
   2.3437500e-02   2.3437500e-02   1.5625000e-02   7.8125000e-03  -4.6875000e-02  -3.1250000e-02   2.3437500e-02   1.5625000e-02
  -9.3750000e-02  -3.9062500e-02  -3.9062500e-02   0.0000000e+00   1.4843750e-01  -3.1250000e-02  -5.4687500e-02   0.0000000e+00
   5.4687500e-02   6.2500000e-02  -1.5625000e-02  -7.0312500e-02  -1.6406250e-01  -5.4687500e-02  -2.3437500e-02  -3.1250000e-02
   0.0000000e+00   3.1250000e-02   5.4687500e-02   2.3437500e-02   3.9062500e-02   3.9062500e-02   3.1250000e-02   7.8125000e-03
   1.5625000e-02  -5.4687500e-02  -2.3437500e-02   1.5625000e-02   7.8125000e-02  -7.8125000e-03  -7.8125000e-03   0.0000000e+00
   4.6875000e-02   0.0000000e+00  -1.5625000e-02  -4.6875000e-02  -3.1250000e-02  -1.5625000e-02  -7.8125000e-03   3.1250000e-02
  -1.1718750e-01  -3.9062500e-02   7.8125000e-03   1.5625000e-02  -2.3437500e-02   7.8125000e-03   7.8125000e-03  -4.6875000e-02
  -8.5937500e-02  -5.4687500e-02  -4.6875000e-02  -2.3437500e-02  -6.2500000e-02   3.9062500e-02   3.1250000e-02   0.0000000e+00
   6.2500000e-02  -7.8125000e-03  -2.3437500e-02  -1.5625000e-02   0.0000000e+00  -7.8125000e-03   7.8125000e-03   7.8125000e-03
   3.1250000e-02   1.5625000e-02   0.0000000e+00   2.3437500e-02   2.3437500e-02   5.4687500e-02   7.8125000e-03  -7.8125000e-03
  -6.2500000e-02  -3.1250000e-02  -3.9062500e-02  -3.1250000e-02   1.5625000e-02  -4.6875000e-02  -1.5625000e-02  -4.6875000e-02
   9.3750000e-02   0.0000000e+00   3.9062500e-02   3.9062500e-02   6.2500000e-02   0.0000000e+00  -7.8125000e-03   7.8125000e-03
  -4.6875000e-02  -7.8125000e-03   2.3437500e-02  -1.5625000e-02  -4.6875000e-02  -3.1250000e-02  -3.9062500e-02  -7.8125000e-03
  -3.9062500e-02  -3.1250000e-02  -5.4687500e-02  -3.9062500e-02  -7.0312500e-02  -3.1250000e-02  -7.8125000e-03  -3.1250000e-02
  -5.4687500e-02  -1.5625000e-02   0.0000000e+00   1.5625000e-02   3.1250000e-02  -1.5625000e-02  -5.4687500e-02  -3.1250000e-02
   2.3437500e-02   1.5625000e-02  -2.3437500e-02  -7.8125000e-03  -1.0937500e-01  -1.5625000e-02   4.6875000e-02   3.1250000e-02
   7.8125000e-03   3.9062500e-02   2.3437500e-02   4.6875000e-02   1.5625000e-01   0.0000000e+00   2.3437500e-02   3.9062500e-02
  -5.4687500e-02  -2.3437500e-02  -3.1250000e-02  -4.6875000e-02  -9.3750000e-02  -2.3437500e-02  -1.5625000e-02  -3.1250000e-02
   1.5625000e-02  -7.8125000e-03   3.1250000e-02   3.9062500e-02   3.9062500e-02  -1.5625000e-02   2.3437500e-02   1.5625000e-02
   2.3437500e-02   1.5625000e-02   0.0000000e+00  -3.1250000e-02   0.0000000e+00  -1.5625000e-02  -3.9062500e-02   0.0000000e+00
   1.5625000e-02  -7.8125000e-03   1.5625000e-02   3.1250000e-02  -1.5625000e-02   7.8125000e-03   4.6875000e-02   1.5625000e-02
  -3.9062500e-02   7.8125000e-03  -7.8125000e-03  -1.5625000e-02   0.0000000e+00   0.0000000e+00  -1.5625000e-02   0.0000000e+00
  -3.9062500e-02   0.0000000e+00  -3.1250000e-02  -6.2500000e-02  -6.2500000e-02  -1.5625000e-02   7.8125000e-03  -7.8125000e-03
  -1.5625000e-02  -3.1250000e-02  -7.8125000e-03  -7.8125000e-03  -7.0312500e-02   0.0000000e+00  -6.2500000e-02  -1.5625000e-02
   7.8125000e-03   7.8125000e-03   2.3437500e-02   4.6875000e-02   7.0312500e-02  -3.1250000e-02  -4.6875000e-02  -2.3437500e-02
  -1.5625000e-02  -7.8125000e-03  -7.8125000e-03   0.0000000e+00   0.0000000e+00   7.8125000e-03   7.0312500e-02   3.1250000e-02
   7.8125000e-03   7.8125000e-03  -3.9062500e-02  -7.0312500e-02  -7.8125000e-02   0.0000000e+00   1.5625000e-02  -2.3437500e-02
  -7.8125000e-03   7.8125000e-03   2.3437500e-02   3.9062500e-02   3.9062500e-02   0.0000000e+00   0.0000000e+00   1.5625000e-02
  -3.1250000e-02  -7.8125000e-03  -1.5625000e-02   0.0000000e+00  -1.5625000e-02  -1.5625000e-02  -3.1250000e-02   1.5625000e-02
   2.3437500e-02   3.9062500e-02   7.8125000e-03   3.1250000e-02   8.5937500e-02   3.9062500e-02  -3.1250000e-02  -2.3437500e-02
  -2.3437500e-02  -3.9062500e-02   0.0000000e+00  -2.3437500e-02  -3.9062500e-02  -5.4687500e-02   0.0000000e+00   3.1250000e-02
   0.0000000e+00   3.9062500e-02   1.5625000e-02   7.8125000e-03   4.6875000e-02  -3.9062500e-02  -1.5625000e-02  -2.3437500e-02
  -7.0312500e-02  -9.3750000e-02  -2.3437500e-02  -1.5625000e-02  -6.2500000e-02  -2.3437500e-02  -5.4687500e-02  -3.9062500e-02
   1.7187500e-01   6.2500000e-02   0.0000000e+00  -2.3437500e-02   3.1250000e-02   4.6875000e-02   6.2500000e-02   5.4687500e-02
   7.8125000e-03  -3.1250000e-02  -2.3437500e-02   3.9062500e-02  -2.3437500e-02   7.8125000e-03   4.6875000e-02   2.3437500e-02
  -6.2500000e-02  -2.3437500e-02  -7.8125000e-03   7.8125000e-03   5.4687500e-02  -3.1250000e-02  -3.1250000e-02  -2.3437500e-02
  -2.3437500e-02  -7.8125000e-03   2.3437500e-02  -1.5625000e-02  -5.4687500e-02   0.0000000e+00  -3.1250000e-02  -2.3437500e-02
  -2.3437500e-02  -4.6875000e-02  -3.1250000e-02  -3.9062500e-02  -1.5625000e-02   2.3437500e-02   2.3437500e-02   1.5625000e-02
  -3.1250000e-02  -3.1250000e-02  -2.3437500e-02   7.8125000e-03  -3.9062500e-02  -1.5625000e-02   7.8125000e-03   7.8125000e-03
  -3.9062500e-02   3.9062500e-02   1.5625000e-02   0.0000000e+00  -2.3437500e-02  -3.1250000e-02  -5.4687500e-02  -4.6875000e-02
   1.0156250e-01   3.9062500e-02  -3.9062500e-02  -3.1250000e-02  -3.9062500e-02   2.3437500e-02   4.6875000e-02   3.1250000e-02
   1.5625000e-02   3.1250000e-02   3.1250000e-02   3.9062500e-02   7.8125000e-03  -3.9062500e-02  -1.5625000e-02   7.8125000e-03
   6.2500000e-02  -7.8125000e-03  -1.5625000e-02  -5.4687500e-02  -4.6875000e-02  -2.3437500e-02   1.5625000e-02   2.3437500e-02
  -1.3281250e-01  -7.0312500e-02  -2.3437500e-02   4.6875000e-02   8.5937500e-02   1.5625000e-02  -7.8125000e-03  -7.8125000e-03
  -7.0312500e-02  -1.5625000e-02   0.0000000e+00  -1.5625000e-02   1.5625000e-02   1.5625000e-02  -3.9062500e-02  -1.0937500e-01
   0.0000000e+00  -7.8125000e-03   3.1250000e-02   0.0000000e+00   1.5625000e-02   7.8125000e-03   3.1250000e-02  -1.5625000e-02
   3.1250000e-02  -7.8125000e-03  -7.8125000e-03  -7.8125000e-03  -1.7968750e-01   1.5625000e-02   3.1250000e-02   2.3437500e-02
   7.8125000e-03   7.8125000e-03   2.3437500e-02   3.1250000e-02   2.0312500e-01   2.3437500e-02   3.9062500e-02   1.5625000e-02
  -7.8125000e-03   7.8125000e-03   7.8125000e-03   1.5625000e-02   1.5625000e-02   7.8125000e-03  -4.6875000e-02  -2.3437500e-02
   0.0000000e+00   0.0000000e+00  -2.3437500e-02  -3.9062500e-02  -1.5625000e-02  -1.5625000e-02   7.8125000e-03   1.5625000e-02
   0.0000000e+00   7.8125000e-03   7.8125000e-03  -2.3437500e-02   7.8125000e-03   0.0000000e+00  -2.3437500e-02  -7.8125000e-03
  -3.1250000e-02   0.0000000e+00   1.5625000e-02   4.6875000e-02   7.8125000e-03  -1.5625000e-02  -2.3437500e-02  -2.3437500e-02
  -5.4687500e-02  -2.3437500e-02  -1.5625000e-02  -1.5625000e-02  -9.3750000e-02  -5.4687500e-02  -3.1250000e-02  -1.5625000e-02
   6.2500000e-02   1.5625000e-02  -7.8125000e-03  -3.1250000e-02   1.5625000e-02   0.0000000e+00   2.3437500e-02   7.8125000e-03
  -5.4687500e-02  -2.3437500e-02  -3.1250000e-02   3.1250000e-02   1.5625000e-02   0.0000000e+00   0.0000000e+00  -1.5625000e-02
   5.4687500e-02   1.5625000e-02   3.1250000e-02   2.3437500e-02  -3.9062500e-02  -7.8125000e-03  -7.8125000e-03   7.8125000e-03
  -2.3437500e-02  -1.5625000e-02   7.8125000e-03  -1.5625000e-02   2.3437500e-02  -1.5625000e-02  -5.4687500e-02  -7.8125000e-03
  -7.8125000e-03  -1.5625000e-02  -3.9062500e-02   0.0000000e+00  -7.0312500e-02  -1.5625000e-02   2.3437500e-02   7.8125000e-03
  -1.5625000e-02  -1.5625000e-02   7.8125000e-03   0.0000000e+00   0.0000000e+00   1.5625000e-02   1.5625000e-02   7.8125000e-03
  -7.8125000e-02  -5.4687500e-02  -2.3437500e-02  -2.3437500e-02  -8.5937500e-02  -7.8125000e-03   3.1250000e-02  -5.4687500e-02
   1.5625000e-02   7.8125000e-03  -7.8125000e-03   2.3437500e-02   7.8125000e-02  -1.5625000e-02  -7.8125000e-02   0.0000000e+00
   7.8125000e-03  -1.5625000e-02  -4.6875000e-02  -7.8125000e-03  -1.5625000e-02   7.0312500e-02   5.4687500e-02   3.1250000e-02
  -1.5625000e-02  -3.1250000e-02   1.5625000e-02  -3.1250000e-02  -3.9062500e-02  -1.4843750e-01  -3.1250000e-02  -2.3437500e-02
   7.8125000e-03   1.5625000e-02  -7.8125000e-03  -7.8125000e-03  -9.3750000e-02   7.8125000e-03   1.5625000e-02   2.3437500e-02
  -6.2500000e-02  -3.9062500e-02  -2.3437500e-02  -7.8125000e-03   7.0312500e-02  -2.3437500e-02   0.0000000e+00  -7.8125000e-03
  -7.8125000e-03   2.3437500e-02   2.3437500e-02   0.0000000e+00  -3.9062500e-02   7.8125000e-03  -7.8125000e-03  -7.8125000e-03
  -2.3437500e-02  -1.5625000e-02   7.8125000e-03  -2.3437500e-02  -8.5937500e-02  -1.5625000e-02   2.3437500e-02  -7.8125000e-03
  -9.3750000e-02  -3.9062500e-02  -2.3437500e-02  -1.5625000e-02   9.3750000e-02  -7.8125000e-03  -7.8125000e-03   0.0000000e+00
   3.9062500e-02  -7.8125000e-03   0.0000000e+00   2.3437500e-02   0.0000000e+00   7.8125000e-03  -7.8125000e-03  -2.3437500e-02
   1.5625000e-02  -1.5625000e-02   0.0000000e+00  -1.5625000e-02   0.0000000e+00   0.0000000e+00   0.0000000e+00   0.0000000e+00
   2.3437500e-02  -1.5625000e-02  -3.1250000e-02  -7.8125000e-03   1.5625000e-02   2.3437500e-02   3.9062500e-02   1.5625000e-02
   3.9062500e-02   7.8125000e-03   0.0000000e+00  -7.8125000e-03  -5.4687500e-02   0.0000000e+00   7.8125000e-03   0.0000000e+00
  -5.4687500e-02   7.8125000e-03   4.6875000e-02   0.0000000e+00  -7.8125000e-02   3.1250000e-02   3.1250000e-02   3.9062500e-02
   1.5625000e-02   7.8125000e-03   7.8125000e-03  -7.8125000e-03   1.4843750e-01  -1.5625000e-02  -4.6875000e-02  -7.8125000e-02
  -2.3437500e-02  -3.1250000e-02  -4.6875000e-02  -5.4687500e-02  -6.2500000e-02  -4.6875000e-02  -3.9062500e-02  -2.3437500e-02
   1.5625000e-02   0.0000000e+00  -3.9062500e-02   7.8125000e-03  -2.3437500e-02  -1.5625000e-02   0.0000000e+00   7.0312500e-02
   7.8125000e-03   7.8125000e-03   1.5625000e-02   3.1250000e-02   3.1250000e-02   1.5625000e-02   7.8125000e-03  -2.3437500e-02
   0.0000000e+00   7.8125000e-03   7.8125000e-03  -5.4687500e-02  -6.2500000e-02  -4.6875000e-02  -7.8125000e-03   7.8125000e-03
  -4.6875000e-02  -3.1250000e-02   7.8125000e-03   2.3437500e-02  -3.9062500e-02   3.1250000e-02  -3.1250000e-02  -7.8125000e-03
  -3.9062500e-02  -3.9062500e-02  -3.1250000e-02   0.0000000e+00  -7.8125000e-03  -3.1250000e-02  -7.8125000e-03  -1.5625000e-02
   1.5625000e-02  -7.8125000e-03  -7.8125000e-03   0.0000000e+00   8.5937500e-02   3.1250000e-02   2.3437500e-02  -7.8125000e-03
  -7.8125000e-03   3.9062500e-02   3.1250000e-02   7.0312500e-02   1.5625000e-02  -5.4687500e-02   3.1250000e-02   7.8125000e-03
   3.1250000e-02   7.8125000e-03  -1.5625000e-02   7.8125000e-03   3.1250000e-02   3.9062500e-02  -7.8125000e-03   1.5625000e-02
  -3.1250000e-02  -1.5625000e-02  -3.9062500e-02  -3.9062500e-02  -3.1250000e-02  -7.8125000e-03   7.8125000e-03  -3.1250000e-02
  -6.2500000e-02  -2.3437500e-02  -1.5625000e-02  -3.1250000e-02  -5.4687500e-02  -3.9062500e-02  -5.4687500e-02  -3.1250000e-02
  -2.3437500e-02  -3.1250000e-02  -3.1250000e-02  -1.5625000e-02  -7.8125000e-03  -5.4687500e-02  -8.5937500e-02  -3.1250000e-02
  -7.8125000e-03  -7.8125000e-03   0.0000000e+00   7.8125000e-03   1.5625000e-02   2.3437500e-02   1.5625000e-02   5.4687500e-02
  -2.3437500e-02   0.0000000e+00   2.3437500e-02   1.5625000e-02  -3.9062500e-02  -7.8125000e-03   3.9062500e-02   0.0000000e+00
  -7.8125000e-03  -2.3437500e-02  -1.5625000e-02   7.8125000e-03  -7.8125000e-03   1.5625000e-02   7.8125000e-03  -1.5625000e-02
   3.1250000e-02   3.9062500e-02   0.0000000e+00  -2.3437500e-02  -7.8125000e-03  -7.8125000e-03   2.3437500e-02   3.1250000e-02
   0.0000000e+00   0.0000000e+00  -7.8125000e-03  -3.9062500e-02  -4.6875000e-02  -5.4687500e-02  -4.6875000e-02  -1.5625000e-02
   0.0000000e+00   7.8125000e-03   2.3437500e-02   3.1250000e-02   3.1250000e-02   1.5625000e-02  -4.6875000e-02  -3.1250000e-02
  -5.4687500e-02  -1.5625000e-02   0.0000000e+00   2.3437500e-02   1.5625000e-02   0.0000000e+00   7.8125000e-03  -1.5625000e-02
  -4.6875000e-02  -3.9062500e-02  -7.8125000e-03  -6.2500000e-02  -4.6875000e-02   7.8125000e-03  -1.5625000e-02   0.0000000e+00
   1.5625000e-02   7.8125000e-03  -1.5625000e-02   2.3437500e-02   1.5625000e-02   1.5625000e-02   4.6875000e-02   0.0000000e+00
  -3.9062500e-02   0.0000000e+00   0.0000000e+00  -7.8125000e-03   3.9062500e-02   3.1250000e-02   7.8125000e-03  -3.1250000e-02
   6.2500000e-02   3.1250000e-02   7.8125000e-03  -1.5625000e-02  -1.0937500e-01  -9.3750000e-02  -3.1250000e-02   1.5625000e-02
  -7.8125000e-03  -7.8125000e-03  -7.8125000e-03   3.9062500e-02   3.9062500e-02   2.3437500e-02   0.0000000e+00   7.8125000e-03
  -3.1250000e-02   0.0000000e+00  -1.5625000e-02  -4.6875000e-02  -3.1250000e-02   7.8125000e-03   1.5625000e-02  -1.5625000e-02
  -7.8125000e-03  -1.5625000e-02  -2.3437500e-02   0.0000000e+00  -7.0312500e-02  -7.8125000e-03   7.8125000e-03   7.8125000e-03
   0.0000000e+00   7.8125000e-03   7.8125000e-03   0.0000000e+00   7.8125000e-03   7.8125000e-03   7.8125000e-03   7.8125000e-03
  -1.5625000e-02  -3.1250000e-02   0.0000000e+00  -7.8125000e-03   9.3750000e-02   7.8125000e-03  -1.5625000e-02  -7.8125000e-03
   7.8125000e-03   7.8125000e-03  -7.8125000e-03   2.3437500e-02  -2.3437500e-02  -4.6875000e-02  -3.9062500e-02  -7.8125000e-03
  -7.8125000e-03  -1.5625000e-02  -7.8125000e-03  -3.1250000e-02  -7.8125000e-03   0.0000000e+00   3.9062500e-02   1.5625000e-02
  -7.8125000e-03   0.0000000e+00  -7.8125000e-03  -2.3437500e-02  -3.1250000e-02  -1.5625000e-02   7.8125000e-03  -3.1250000e-02
  -1.5625000e-02   0.0000000e+00   1.5625000e-02   3.9062500e-02   3.9062500e-02  -1.5625000e-02   7.8125000e-03   7.8125000e-03
   0.0000000e+00   7.8125000e-03  -1.5625000e-02  -1.5625000e-02  -1.5625000e-02   2.3437500e-02  -7.8125000e-03  -7.8125000e-03
  -3.1250000e-02   2.3437500e-02   3.9062500e-02   2.3437500e-02  -1.5625000e-02   0.0000000e+00  -1.5625000e-02  -3.1250000e-02
  -7.8125000e-03  -2.3437500e-02   7.8125000e-03   1.5625000e-02  -1.5625000e-02   7.8125000e-03  -1.5625000e-02  -7.8125000e-03
   1.5625000e-02  -3.9062500e-02  -4.6875000e-02  -3.1250000e-02  -2.3437500e-02   0.0000000e+00   0.0000000e+00  -1.5625000e-02
  -2.3437500e-02  -2.3437500e-02  -7.8125000e-03   7.8125000e-03   7.8125000e-03  -7.8125000e-03  -1.5625000e-02   0.0000000e+00
  -5.4687500e-02  -4.6875000e-02  -3.9062500e-02  -1.5625000e-02   7.8125000e-02   0.0000000e+00  -3.1250000e-02  -3.1250000e-02
   1.2500000e-01   5.4687500e-02   7.8125000e-03  -3.1250000e-02  -7.0312500e-02  -2.3437500e-02   1.5625000e-02   3.1250000e-02
  -1.5625000e-02   7.8125000e-03   1.5625000e-02   3.9062500e-02   0.0000000e+00   3.9062500e-02  -2.3437500e-02  -2.3437500e-02
  -1.5625000e-02  -7.8125000e-03   3.1250000e-02   3.9062500e-02   1.6406250e-01   3.9062500e-02  -7.8125000e-03  -7.8125000e-03
   0.0000000e+00  -4.6875000e-02  -1.5625000e-02  -6.2500000e-02   7.8125000e-03  -2.3437500e-02  -7.8125000e-03  -7.8125000e-03
   1.5625000e-02   7.8125000e-03   1.5625000e-02   7.8125000e-03   7.8125000e-03   1.5625000e-02   0.0000000e+00  -7.8125000e-03
   2.3437500e-02   1.5625000e-02   3.1250000e-02   3.1250000e-02  -2.3437500e-02  -3.1250000e-02  -5.4687500e-02  -3.1250000e-02
  -2.3437500e-02  -3.9062500e-02  -1.5625000e-02  -7.8125000e-03   2.3437500e-02  -3.9062500e-02   1.5625000e-02  -2.3437500e-02
  -1.5625000e-02  -2.3437500e-02  -4.6875000e-02  -5.4687500e-02  -4.6875000e-02  -3.9062500e-02   0.0000000e+00   7.8125000e-03
  -4.6875000e-02  -3.1250000e-02  -3.1250000e-02  -2.3437500e-02   1.5625000e-02   8.5937500e-02   2.3437500e-02  -1.5625000e-02
   2.3437500e-02   2.3437500e-02  -7.8125000e-03  -2.3437500e-02  -3.9062500e-02  -7.8125000e-03   1.5625000e-02   1.5625000e-02
  -3.1250000e-02   1.5625000e-02   7.8125000e-03   2.3437500e-02   0.0000000e+00   1.5625000e-02   7.8125000e-03  -2.3437500e-02
   6.2500000e-02   3.1250000e-02   3.1250000e-02   5.4687500e-02   2.3437500e-02  -7.8125000e-03  -6.2500000e-02   7.8125000e-03
  -7.8125000e-03   7.8125000e-03  -1.5625000e-02  -2.3437500e-02  -3.1250000e-02  -3.1250000e-02   2.3437500e-02   3.1250000e-02
   7.8125000e-03   7.8125000e-03   2.3437500e-02   0.0000000e+00   1.5625000e-02   7.8125000e-03   0.0000000e+00   2.3437500e-02
  -3.1250000e-02  -6.2500000e-02  -2.3437500e-02  -3.9062500e-02  -5.4687500e-02  -2.3437500e-02  -1.5625000e-02  -2.3437500e-02
  -1.5625000e-02   7.8125000e-03  -3.1250000e-02   2.3437500e-02   0.0000000e+00   0.0000000e+00   7.8125000e-03   0.0000000e+00
  -1.5625000e-02  -7.8125000e-03   1.5625000e-02   7.8125000e-03  -3.9062500e-02  -7.0312500e-02   0.0000000e+00  -2.3437500e-02
   3.9062500e-02   7.8125000e-03   0.0000000e+00   7.8125000e-03  -7.8125000e-03  -1.5625000e-02  -2.3437500e-02   3.1250000e-02
  -4.6875000e-02  -7.8125000e-03   0.0000000e+00   1.5625000e-02   1.5625000e-02   7.8125000e-03  -7.8125000e-03  -1.5625000e-02
   0.0000000e+00   3.1250000e-02   2.3437500e-02   7.8125000e-03  -2.3437500e-02  -1.5625000e-02  -1.5625000e-02  -2.3437500e-02
   1.5625000e-02   1.5625000e-02   3.1250000e-02   0.0000000e+00  -3.1250000e-02  -4.6875000e-02  -2.3437500e-02   0.0000000e+00
  -1.5625000e-02  -2.3437500e-02  -9.3750000e-02  -1.3281250e-01  -1.5625000e-02   6.2500000e-02   4.6875000e-02   7.8125000e-03
   0.0000000e+00  -5.4687500e-02  -1.1718750e-01  -3.9062500e-02  -2.3437500e-02  -3.1250000e-02  -4.6875000e-02  -7.8125000e-03
  -2.3437500e-02  -2.3437500e-02  -1.5625000e-02  -1.5625000e-02  -3.9062500e-02  -7.0312500e-02  -3.1250000e-02  -7.8125000e-03
  -1.5625000e-02   0.0000000e+00   2.3437500e-02   4.6875000e-02   3.1250000e-02   3.1250000e-02   0.0000000e+00  -2.3437500e-02
  -1.5625000e-02  -2.3437500e-02  -2.3437500e-02   1.5625000e-02  -3.1250000e-02  -7.8125000e-02  -4.6875000e-02  -7.8125000e-03
  -2.3437500e-02  -2.3437500e-02   0.0000000e+00  -1.5625000e-02  -5.4687500e-02   0.0000000e+00   3.9062500e-02  -7.8125000e-03
  -7.8125000e-03  -7.8125000e-03   7.8125000e-03   4.6875000e-02   1.5625000e-02  -2.3437500e-02  -6.2500000e-02  -3.1250000e-02
  -2.3437500e-02   2.3437500e-02   1.5625000e-02   1.5625000e-02   4.6875000e-02  -3.1250000e-02  -3.9062500e-02   7.8125000e-03
   6.2500000e-02   1.5625000e-02   7.8125000e-03  -7.8125000e-03  -1.5625000e-02   3.9062500e-02   3.9062500e-02   0.0000000e+00
   1.5625000e-02  -7.8125000e-03  -3.1250000e-02  -3.1250000e-02   0.0000000e+00  -2.3437500e-02   7.8125000e-03   2.3437500e-02
  -3.1250000e-02  -1.5625000e-02  -7.8125000e-03  -3.1250000e-02  -4.6875000e-02  -1.5625000e-02  -2.3437500e-02  -2.3437500e-02
   1.5625000e-02   1.5625000e-02   7.8125000e-03   0.0000000e+00   1.5625000e-02   0.0000000e+00   3.9062500e-02   0.0000000e+00
  -4.6875000e-02  -1.5625000e-02   5.4687500e-02   3.1250000e-02   7.8125000e-03  -3.9062500e-02  -3.1250000e-02  -1.5625000e-02
   3.1250000e-02   0.0000000e+00   7.8125000e-03   0.0000000e+00   0.0000000e+00  -1.5625000e-02  -6.2500000e-02  -7.8125000e-03
  -5.4687500e-02  -3.1250000e-02  -3.9062500e-02  -6.2500000e-02  -6.2500000e-02   7.8125000e-03  -1.5625000e-02  -2.3437500e-02
  -1.5625000e-02  -2.3437500e-02  -3.1250000e-02  -3.9062500e-02  -7.0312500e-02  -7.0312500e-02  -1.5625000e-02  -2.3437500e-02
  -1.5625000e-02  -7.8125000e-03   0.0000000e+00   0.0000000e+00  -5.4687500e-02  -1.5625000e-02   7.8125000e-03   7.8125000e-03
  -6.2500000e-02  -7.8125000e-03   2.3437500e-02   3.9062500e-02   0.0000000e+00   7.8125000e-03   7.8125000e-03  -7.8125000e-03
   0.0000000e+00  -3.1250000e-02  -5.4687500e-02  -5.4687500e-02   5.4687500e-02   0.0000000e+00  -6.2500000e-02  -3.1250000e-02
   0.0000000e+00  -1.5625000e-02  -3.1250000e-02  -4.6875000e-02  -3.9062500e-02   1.5625000e-02  -2.3437500e-02   0.0000000e+00
  -1.5625000e-02  -3.1250000e-02  -1.5625000e-02   0.0000000e+00   3.1250000e-02  -4.6875000e-02   0.0000000e+00  -7.8125000e-03
   3.9062500e-02   7.8125000e-03   1.5625000e-02   2.3437500e-02  -1.5625000e-02   7.8125000e-03  -2.3437500e-02   0.0000000e+00
  -3.9062500e-02  -7.8125000e-03   3.9062500e-02   4.6875000e-02   3.9062500e-02  -1.5625000e-02   4.6875000e-02   0.0000000e+00
  -3.1250000e-02   0.0000000e+00   0.0000000e+00   0.0000000e+00   0.0000000e+00  -3.1250000e-02  -6.2500000e-02  -2.3437500e-02
   2.3437500e-02   7.8125000e-03   1.5625000e-02   3.1250000e-02   4.6875000e-02   6.2500000e-02   3.1250000e-02   3.1250000e-02
   4.6875000e-02   4.6875000e-02   2.3437500e-02   4.6875000e-02  -5.4687500e-02   4.6875000e-02   6.2500000e-02   3.1250000e-02
  -1.5625000e-02  -3.9062500e-02  -6.2500000e-02  -4.6875000e-02  -3.1250000e-02  -2.3437500e-02  -6.2500000e-02  -3.1250000e-02
  -2.3437500e-02  -3.1250000e-02  -1.5625000e-02  -4.6875000e-02  -3.9062500e-02  -3.1250000e-02   1.5625000e-02  -1.5625000e-02
   5.4687500e-02   3.9062500e-02  -2.3437500e-02  -1.5625000e-02   3.9062500e-02   2.3437500e-02   5.4687500e-02   1.5625000e-02
  -4.6875000e-02  -1.5625000e-02   7.8125000e-03   2.3437500e-02   7.0312500e-02   2.3437500e-02  -7.8125000e-03  -1.5625000e-02
  -7.8125000e-03   0.0000000e+00   1.5625000e-02   2.3437500e-02  -2.3437500e-02   0.0000000e+00   2.3437500e-02  -7.8125000e-03
  -7.8125000e-03   0.0000000e+00  -7.8125000e-03  -3.1250000e-02  -9.3750000e-02  -7.8125000e-02  -7.8125000e-03  -7.8125000e-03
  -3.1250000e-02   7.8125000e-03   1.5625000e-02   2.3437500e-02   3.1250000e-02   1.5625000e-02  -7.8125000e-03   0.0000000e+00
   6.2500000e-02   0.0000000e+00  -7.8125000e-03  -1.5625000e-02  -3.1250000e-02  -3.9062500e-02  -3.1250000e-02   7.8125000e-03
  -2.3437500e-02   7.8125000e-03   0.0000000e+00   2.3437500e-02  -7.0312500e-02  -7.8125000e-03  -7.8125000e-03  -2.3437500e-02
  -3.9062500e-02  -3.1250000e-02   0.0000000e+00  -3.9062500e-02   3.9062500e-02   7.8125000e-03   1.5625000e-02  -7.8125000e-03
  -3.1250000e-02  -1.5625000e-02  -3.1250000e-02  -2.3437500e-02   0.0000000e+00  -7.8125000e-03  -2.3437500e-02  -2.3437500e-02
  -1.5625000e-02  -1.5625000e-02  -3.9062500e-02  -3.1250000e-02   7.0312500e-02   3.1250000e-02  -2.3437500e-02  -1.5625000e-02
   7.8125000e-03   2.3437500e-02   4.6875000e-02   1.5625000e-02  -2.4218750e-01  -1.3281250e-01   3.9062500e-02   3.9062500e-02
   7.8125000e-03   0.0000000e+00  -1.5625000e-02   3.1250000e-02   2.3437500e-02   3.9062500e-02   7.8125000e-03  -7.8125000e-03
   0.0000000e+00   0.0000000e+00   0.0000000e+00   0.0000000e+00  -7.8125000e-03  -4.6875000e-02  -2.3437500e-02  -3.1250000e-02
  -1.5625000e-02  -3.1250000e-02  -4.6875000e-02  -3.1250000e-02   3.9062500e-02   4.6875000e-02  -3.1250000e-02  -7.8125000e-03
  -3.1250000e-02  -1.5625000e-02  -2.3437500e-02  -7.8125000e-03   7.8125000e-03  -7.8125000e-03  -3.1250000e-02  -4.6875000e-02
  -2.3437500e-02  -7.8125000e-03   2.3437500e-02   2.3437500e-02   6.2500000e-02   7.0312500e-02   3.1250000e-02   1.5625000e-02
   1.5625000e-02   2.3437500e-02  -7.8125000e-03   7.8125000e-03   4.6875000e-02   7.8125000e-02   1.5625000e-02   0.0000000e+00
  -3.9062500e-02  -3.1250000e-02  -2.3437500e-02  -7.8125000e-03  -3.1250000e-02  -7.0312500e-02  -6.2500000e-02  -2.3437500e-02
  -1.2500000e-01  -5.4687500e-02   3.1250000e-02   4.6875000e-02   7.0312500e-02   1.5625000e-02   7.8125000e-03  -6.2500000e-02
   1.9531250e-01   7.8125000e-02   3.1250000e-02  -1.5625000e-02  -7.8125000e-02  -1.5625000e-02   4.6875000e-02   1.0156250e-01
  -4.6875000e-02  -4.6875000e-02  -4.6875000e-02  -7.8125000e-02  -1.5625000e-02  -4.6875000e-02  -4.6875000e-02  -2.3437500e-02
  -3.9062500e-02  -7.8125000e-02  -7.8125000e-02  -3.9062500e-02   0.0000000e+00  -7.8125000e-03   1.5625000e-02  -1.5625000e-02
   5.4687500e-02   3.1250000e-02   7.8125000e-03   4.6875000e-02   1.2500000e-01   7.8125000e-02   2.3437500e-02   2.3437500e-02
  -4.6875000e-02  -2.3437500e-02   2.3437500e-02  -2.3437500e-02  -2.2656250e-01  -2.4218750e-01  -1.0937500e-01  -4.6875000e-02
  -7.8125000e-03  -7.8125000e-03  -7.8125000e-03   0.0000000e+00   4.6875000e-02   2.3437500e-02   2.3437500e-02   0.0000000e+00
   7.8125000e-03   2.3437500e-02   1.5625000e-02   1.5625000e-02   1.5625000e-02   1.5625000e-02  -3.9062500e-02  -2.3437500e-02
   1.5625000e-02  -1.5625000e-02   0.0000000e+00   3.1250000e-02   7.8125000e-02   4.6875000e-02  -3.9062500e-02  -7.8125000e-03
  -3.9062500e-02   7.8125000e-03   0.0000000e+00   3.9062500e-02   7.8125000e-03  -1.1718750e-01  -3.9062500e-02  -2.3437500e-02
   2.3437500e-02   0.0000000e+00  -3.9062500e-02  -6.2500000e-02  -2.3437500e-02   1.0937500e-01  -7.8125000e-03  -7.8125000e-03
   1.5625000e-02   2.3437500e-02   0.0000000e+00   0.0000000e+00   3.9062500e-02   0.0000000e+00   0.0000000e+00  -7.8125000e-03
  -7.8125000e-03   0.0000000e+00  -3.1250000e-02  -4.6875000e-02  -8.5937500e-02  -3.1250000e-02  -1.0156250e-01  -3.1250000e-02
  -1.5625000e-02  -3.9062500e-02  -3.9062500e-02  -3.1250000e-02   0.0000000e+00  -2.3437500e-02   0.0000000e+00  -1.5625000e-02
  -2.3437500e-02   3.9062500e-02   3.9062500e-02   3.9062500e-02  -3.9062500e-02  -3.9062500e-02  -1.5625000e-02  -7.8125000e-03
  -3.1250000e-02  -2.3437500e-02  -7.8125000e-03   2.3437500e-02   4.6875000e-02  -4.6875000e-02  -3.9062500e-02  -2.3437500e-02
  -7.8125000e-03  -3.9062500e-02  -1.5625000e-02  -7.8125000e-03  -7.8125000e-03   3.9062500e-02   7.0312500e-02   0.0000000e+00
   2.3437500e-02  -1.5625000e-02   0.0000000e+00  -1.5625000e-02  -5.4687500e-02   3.9062500e-02   3.1250000e-02   1.5625000e-02
   0.0000000e+00  -7.8125000e-03  -1.5625000e-02  -2.3437500e-02   7.8125000e-03  -7.8125000e-02   0.0000000e+00   0.0000000e+00
   3.1250000e-02   5.4687500e-02   4.6875000e-02   1.5625000e-02   0.0000000e+00   0.0000000e+00   0.0000000e+00   3.9062500e-02
  -7.8125000e-03  -7.8125000e-03  -7.8125000e-03   7.8125000e-03  -3.1250000e-02  -2.3437500e-02  -1.5625000e-02   7.8125000e-03
   3.9062500e-02   3.9062500e-02   4.6875000e-02   7.0312500e-02   9.3750000e-02   1.6406250e-01   7.8125000e-02   3.1250000e-02
  -1.5625000e-02   0.0000000e+00   3.9062500e-02   2.3437500e-02   7.8125000e-03   3.9062500e-02   7.0312500e-02   2.3437500e-02
   2.3437500e-02   3.1250000e-02   7.8125000e-03  -2.3437500e-02  -5.4687500e-02   3.9062500e-02   9.3750000e-02   2.3437500e-02
   1.5625000e-02   1.5625000e-02   3.9062500e-02   1.5625000e-02   3.1250000e-02  -1.5625000e-02  -4.6875000e-02  -2.3437500e-02
  -1.5625000e-02  -7.8125000e-03  -7.8125000e-03   0.0000000e+00  -1.0937500e-01  -1.0937500e-01   6.2500000e-02   3.1250000e-02
   3.1250000e-02   3.9062500e-02   3.1250000e-02   6.2500000e-02   1.7187500e-01   1.1718750e-01  -7.8125000e-03   0.0000000e+00
  -7.8125000e-03   0.0000000e+00  -2.3437500e-02  -1.5625000e-02   1.3281250e-01   1.1718750e-01   4.6875000e-02   7.8125000e-03
  -3.1250000e-02  -7.8125000e-03  -3.9062500e-02  -6.2500000e-02  -1.6406250e-01  -5.4687500e-02  -2.3437500e-02  -3.1250000e-02
  -1.5625000e-02  -1.5625000e-02  -1.5625000e-02  -4.6875000e-02  -1.7187500e-01  -1.0156250e-01  -7.8125000e-03  -1.5625000e-02
  -3.1250000e-02  -4.6875000e-02  -3.9062500e-02   0.0000000e+00   7.8125000e-02   0.0000000e+00  -8.5937500e-02  -4.6875000e-02
  -1.5625000e-02   2.3437500e-02   7.8125000e-03   4.6875000e-02   6.2500000e-02   8.5937500e-02   3.9062500e-02  -7.8125000e-03
   5.4687500e-02   7.8125000e-03   7.8125000e-03  -3.1250000e-02   7.0312500e-02   4.6875000e-02   1.5625000e-02   7.8125000e-03
  -1.5625000e-02   7.8125000e-03   1.5625000e-02   1.5625000e-02  -3.9062500e-02  -4.6875000e-02  -3.1250000e-02  -2.3437500e-02
   7.8125000e-03  -3.1250000e-02   0.0000000e+00  -3.9062500e-02  -7.8125000e-02  -2.3437500e-02   0.0000000e+00   7.8125000e-03
  -3.1250000e-02  -4.6875000e-02  -3.1250000e-02  -3.9062500e-02   3.1250000e-02  -9.3750000e-02  -9.3750000e-02  -2.3437500e-02
  -7.8125000e-03  -3.1250000e-02  -2.3437500e-02  -1.5625000e-02   3.1250000e-02   1.1718750e-01   0.0000000e+00  -3.9062500e-02
   0.0000000e+00  -7.8125000e-03  -3.9062500e-02  -6.2500000e-02  -2.3437500e-02  -6.2500000e-02   2.3437500e-02   0.0000000e+00
  -1.5625000e-02   0.0000000e+00  -1.5625000e-02   0.0000000e+00  -2.3437500e-02  -3.1250000e-02  -4.6875000e-02  -3.9062500e-02
   4.6875000e-02   3.1250000e-02   3.9062500e-02   3.9062500e-02   0.0000000e+00   7.8125000e-02   5.4687500e-02   1.5625000e-02
  -1.2500000e-01  -3.9062500e-02  -7.8125000e-03   7.8125000e-03   5.4687500e-02   1.5625000e-02   1.5625000e-02  -3.1250000e-02
   7.8125000e-02   2.3437500e-02   2.3437500e-02   5.4687500e-02   2.3437500e-02  -6.2500000e-02  -6.2500000e-02  -7.8125000e-03
   2.3437500e-02   1.5625000e-02   2.3437500e-02   1.5625000e-02  -5.4687500e-02   0.0000000e+00   3.9062500e-02   7.8125000e-03
  -3.9062500e-02  -3.9062500e-02  -6.2500000e-02  -6.2500000e-02  -8.5937500e-02  -9.3750000e-02  -2.3437500e-02  -1.5625000e-02
   1.5625000e-02  -2.3437500e-02  -3.9062500e-02  -1.5625000e-02  -1.5625000e-02  -4.6875000e-02   7.8125000e-03   1.5625000e-02
  -7.0312500e-02  -4.6875000e-02  -2.3437500e-02   7.8125000e-03   1.0156250e-01   8.5937500e-02  -7.8125000e-03  -7.8125000e-03
  -7.8125000e-03   3.1250000e-02   3.1250000e-02   0.0000000e+00   3.1250000e-02  -7.0312500e-02  -7.8125000e-02  -7.8125000e-03
   3.1250000e-02   3.9062500e-02   5.4687500e-02   6.2500000e-02  -3.9062500e-02   2.6562500e-01   1.0156250e-01   2.3437500e-02
  -1.5625000e-02  -1.5625000e-02  -1.5625000e-02   0.0000000e+00  -3.1250000e-02  -3.1250000e-02   1.5625000e-02   7.8125000e-03
  -3.9062500e-02  -1.5625000e-02  -7.8125000e-03  -3.1250000e-02   7.8125000e-02   3.9062500e-02   0.0000000e+00  -3.1250000e-02
   2.3437500e-02   0.0000000e+00   0.0000000e+00  -2.3437500e-02  -6.2500000e-02  -9.3750000e-02  -8.5937500e-02   1.5625000e-02
  -2.3437500e-02  -2.3437500e-02  -2.3437500e-02  -5.4687500e-02  -4.6875000e-02  -9.3750000e-02  -8.5937500e-02  -5.4687500e-02
   7.8125000e-03  -2.3437500e-02  -2.3437500e-02  -2.3437500e-02  -7.8125000e-03   7.8125000e-03   3.1250000e-02   7.8125000e-03
   1.5625000e-02  -2.3437500e-02   0.0000000e+00   0.0000000e+00  -7.8125000e-03   3.1250000e-02   0.0000000e+00  -2.3437500e-02
  -1.5625000e-02  -3.1250000e-02  -7.0312500e-02  -4.6875000e-02  -6.2500000e-02  -3.1250000e-02  -7.8125000e-03   0.0000000e+00
  -2.3437500e-02  -7.8125000e-03  -1.5625000e-02   7.8125000e-03   3.1250000e-02  -5.4687500e-02   0.0000000e+00  -2.3437500e-02
   1.5625000e-02   4.6875000e-02   3.9062500e-02   4.6875000e-02   7.8125000e-03   1.5625000e-02   7.8125000e-03   7.8125000e-03
  -7.8125000e-03   7.8125000e-03   0.0000000e+00  -3.1250000e-02  -2.3437500e-02  -5.4687500e-02  -4.6875000e-02   7.8125000e-03
  -1.5625000e-02  -7.8125000e-03   2.3437500e-02   1.5625000e-02   7.8125000e-03   2.3437500e-02   3.1250000e-02   2.3437500e-02
  -7.8125000e-03  -2.3437500e-02  -7.8125000e-03  -1.5625000e-02  -3.1250000e-02  -7.0312500e-02  -6.2500000e-02  -1.5625000e-02
   2.3437500e-02   7.8125000e-03  -7.8125000e-03   7.8125000e-03   3.9062500e-02  -7.8125000e-03  -1.5625000e-02  -7.8125000e-03
  -5.4687500e-02  -2.3437500e-02  -1.5625000e-02  -7.8125000e-03   0.0000000e+00   0.0000000e+00  -1.5625000e-02  -2.3437500e-02
   7.8125000e-03   3.1250000e-02   5.4687500e-02   4.6875000e-02   3.9062500e-02   7.0312500e-02   5.4687500e-02   0.0000000e+00
   4.6875000e-02   7.8125000e-03   0.0000000e+00   0.0000000e+00  -3.1250000e-02  -5.4687500e-02  -3.1250000e-02   1.5625000e-02
   3.1250000e-02   1.5625000e-02   0.0000000e+00  -3.1250000e-02  -6.2500000e-02  -1.5625000e-02  -1.5625000e-02   0.0000000e+00
  -1.5625000e-02  -3.1250000e-02  -3.1250000e-02   7.8125000e-03   3.1250000e-02   3.1250000e-02   0.0000000e+00   0.0000000e+00
  -1.5625000e-02  -1.5625000e-02  -2.3437500e-02  -4.6875000e-02  -3.9062500e-02  -2.3437500e-02  -1.5625000e-02  -2.3437500e-02
  -1.5625000e-02   1.5625000e-02   3.1250000e-02   3.9062500e-02   2.3437500e-02  -3.9062500e-02  -1.5625000e-02   7.8125000e-03
   0.0000000e+00   7.8125000e-03   2.3437500e-02   3.1250000e-02  -1.5625000e-02   1.5625000e-02   2.3437500e-02   0.0000000e+00
  -7.8125000e-03  -7.8125000e-03  -7.0312500e-02  -7.0312500e-02  -1.5625000e-02   1.5625000e-02  -7.8125000e-03  -3.1250000e-02
   0.0000000e+00  -1.5625000e-02   1.5625000e-02   2.3437500e-02  -1.5625000e-02  -3.1250000e-02  -2.3437500e-02  -1.5625000e-02
  -2.3437500e-02  -3.1250000e-02  -3.9062500e-02  -2.3437500e-02  -3.1250000e-02  -4.6875000e-02  -7.8125000e-03  -7.8125000e-03
  -2.3437500e-02  -3.1250000e-02  -6.2500000e-02  -7.0312500e-02   0.0000000e+00  -4.6875000e-02  -1.5625000e-02   0.0000000e+00
   0.0000000e+00   2.3437500e-02   2.3437500e-02   1.5625000e-02  -3.9062500e-02  -3.1250000e-02   0.0000000e+00  -1.5625000e-02
   7.8125000e-03   7.8125000e-03   7.8125000e-03  -1.5625000e-02  -7.8125000e-03   1.5625000e-02   2.3437500e-02  -7.8125000e-03
   1.5625000e-02   7.8125000e-03   2.3437500e-02  -1.5625000e-02  -7.8125000e-03  -1.5625000e-02  -2.3437500e-02  -1.5625000e-02
  -7.8125000e-03  -7.8125000e-03   7.8125000e-03   3.9062500e-02   3.9062500e-02  -7.8125000e-03  -1.5625000e-02   7.8125000e-03
  -1.5625000e-02  -2.3437500e-02   0.0000000e+00   0.0000000e+00   4.6875000e-02   7.0312500e-02   2.3437500e-02   1.5625000e-02
   0.0000000e+00   0.0000000e+00  -3.1250000e-02  -3.1250000e-02  -6.2500000e-02  -3.1250000e-02   0.0000000e+00   0.0000000e+00
  -1.5625000e-02  -7.8125000e-03  -4.6875000e-02  -4.6875000e-02  -1.5625000e-02   7.8125000e-03  -2.3437500e-02  -7.8125000e-03
   0.0000000e+00   1.5625000e-02   3.1250000e-02   2.3437500e-02   0.0000000e+00   2.3437500e-02  -7.8125000e-03   7.8125000e-03
  -7.8125000e-03  -1.5625000e-02  -7.8125000e-03   1.5625000e-02  -7.8125000e-03  -1.3281250e-01  -8.5937500e-02   0.0000000e+00
   0.0000000e+00  -7.8125000e-03  -2.3437500e-02  -3.1250000e-02  -7.8125000e-03   1.6406250e-01   5.4687500e-02  -7.8125000e-03
  -3.9062500e-02  -3.1250000e-02  -7.8125000e-03  -1.5625000e-02   0.0000000e+00  -7.0312500e-02   1.5625000e-02  -7.8125000e-03
   8.5937500e-02   3.1250000e-02   3.1250000e-02   1.5625000e-02   2.3437500e-02  -7.8125000e-03   1.5625000e-02   3.1250000e-02
  -1.5625000e-02   7.8125000e-03   7.8125000e-03   5.4687500e-02   1.5625000e-02   7.8125000e-03   2.3437500e-02   7.8125000e-03
  -1.5625000e-02  -7.8125000e-03   7.8125000e-03  -3.9062500e-02  -2.3437500e-02  -7.8125000e-02  -6.2500000e-02  -2.3437500e-02
  -1.5625000e-02  -3.1250000e-02  -3.9062500e-02  -4.6875000e-02  -7.8125000e-03   1.5625000e-02   2.3437500e-02   0.0000000e+00
  -3.9062500e-02  -3.9062500e-02  -3.1250000e-02  -2.3437500e-02  -7.8125000e-03   1.5625000e-02  -7.8125000e-03  -3.1250000e-02
  -7.8125000e-03   0.0000000e+00   3.9062500e-02   2.3437500e-02   0.0000000e+00  -2.3437500e-02  -2.3437500e-02   0.0000000e+00
   3.1250000e-02   3.9062500e-02   3.9062500e-02   3.1250000e-02   1.5625000e-02   3.1250000e-02   3.9062500e-02   3.9062500e-02
   2.3437500e-02   1.5625000e-02   7.8125000e-03   7.8125000e-03  -2.3437500e-02   0.0000000e+00  -1.5625000e-02  -7.8125000e-03
  -3.9062500e-02  -3.1250000e-02  -3.1250000e-02  -4.6875000e-02  -2.3437500e-02  -6.2500000e-02  -6.2500000e-02  -3.1250000e-02
  -2.3437500e-02  -3.1250000e-02  -4.6875000e-02  -7.0312500e-02  -3.9062500e-02   1.5625000e-02   7.8125000e-03  -1.5625000e-02
  -1.5625000e-02  -1.5625000e-02  -4.6875000e-02  -3.9062500e-02  -7.8125000e-03  -3.1250000e-02   0.0000000e+00  -1.5625000e-02
   7.8125000e-03   1.5625000e-02   2.3437500e-02   2.3437500e-02   2.3437500e-02  -1.5625000e-02  -3.1250000e-02   0.0000000e+00
  -3.9062500e-02   0.0000000e+00   3.1250000e-02   5.4687500e-02   1.5625000e-02   3.1250000e-02   3.9062500e-02   7.8125000e-03
   5.4687500e-02   1.5625000e-02   7.8125000e-03  -2.3437500e-02  -3.1250000e-02  -2.3437500e-02  -1.5625000e-02  -7.8125000e-03
  -7.8125000e-02  -5.4687500e-02  -2.3437500e-02  -2.3437500e-02  -2.3437500e-02  -1.5625000e-02   1.5625000e-02  -7.8125000e-03
   8.5937500e-02   7.8125000e-03  -2.3437500e-02  -7.8125000e-03   1.5625000e-02   3.9062500e-02   7.8125000e-03   1.5625000e-02
   7.8125000e-03  -7.8125000e-03   1.5625000e-02   0.0000000e+00   0.0000000e+00  -7.8125000e-03  -2.3437500e-02  -1.5625000e-02
  -2.3437500e-02   7.8125000e-03   7.8125000e-03   3.1250000e-02   0.0000000e+00  -2.3437500e-02  -5.4687500e-02  -2.3437500e-02
   0.0000000e+00  -7.8125000e-03  -7.8125000e-03   0.0000000e+00  -3.1250000e-02  -1.5625000e-02   0.0000000e+00  -1.5625000e-02
  -3.9062500e-02  -3.9062500e-02  -7.0312500e-02  -1.5625000e-02   7.8125000e-03  -1.5625000e-02  -1.5625000e-02  -1.5625000e-02
  -2.3437500e-02   0.0000000e+00   0.0000000e+00  -5.4687500e-02   7.8125000e-03   2.3437500e-02   3.1250000e-02  -7.8125000e-03
   4.6875000e-02   7.8125000e-03   1.5625000e-02   4.6875000e-02   0.0000000e+00   7.8125000e-03   0.0000000e+00   1.5625000e-02
   2.3437500e-02   7.8125000e-03   7.8125000e-03   6.2500000e-02   3.1250000e-02  -1.5625000e-02  -1.5625000e-02   7.8125000e-03
  -5.4687500e-02  -3.1250000e-02  -7.8125000e-03  -4.6875000e-02  -3.9062500e-02  -2.3437500e-02  -2.3437500e-02   7.8125000e-03
   1.5625000e-02  -7.8125000e-03   7.8125000e-03  -7.8125000e-03  -6.2500000e-02   1.5625000e-02  -3.1250000e-02  -7.8125000e-03
  -3.1250000e-02  -2.3437500e-02   7.8125000e-03  -2.3437500e-02   1.5625000e-02   1.5625000e-02   8.5937500e-02   0.0000000e+00
   2.3437500e-02   2.3437500e-02   3.1250000e-02   4.6875000e-02   3.1250000e-02  -1.1718750e-01  -3.1250000e-02   1.5625000e-02
  -2.3437500e-02   1.5625000e-02   3.9062500e-02   3.9062500e-02  -7.8125000e-03   7.8125000e-03  -1.5625000e-02  -7.8125000e-03
  -3.9062500e-02  -3.9062500e-02  -7.8125000e-02  -1.0156250e-01  -6.2500000e-02  -3.1250000e-02  -7.8125000e-03  -2.3437500e-02
  -2.3437500e-02  -7.8125000e-03  -1.5625000e-02  -3.9062500e-02  -3.1250000e-02   3.1250000e-02   2.3437500e-02   7.8125000e-03
  -2.3437500e-02  -7.8125000e-03  -1.5625000e-02  -2.3437500e-02   3.1250000e-02   1.5625000e-02   3.1250000e-02   0.0000000e+00
   2.3437500e-02   2.3437500e-02   3.9062500e-02   3.1250000e-02   7.8125000e-03   1.5625000e-02   7.8125000e-03   2.3437500e-02
   1.5625000e-02   1.5625000e-02   2.3437500e-02   4.6875000e-02  -7.8125000e-03  -3.9062500e-02  -3.1250000e-02   7.8125000e-03
  -2.3437500e-02  -1.5625000e-02  -3.9062500e-02  -3.1250000e-02  -1.5625000e-02  -5.4687500e-02  -2.3437500e-02  -1.5625000e-02
   0.0000000e+00  -2.3437500e-02  -3.1250000e-02  -2.3437500e-02  -2.3437500e-02  -2.3437500e-02  -3.9062500e-02  -3.1250000e-02
  -1.5625000e-02   7.8125000e-03  -1.5625000e-02  -1.5625000e-02   1.5625000e-02  -1.5625000e-02   7.8125000e-03  -2.3437500e-02
   1.5625000e-02  -7.8125000e-03   2.3437500e-02   7.8125000e-03   7.8125000e-03   2.3437500e-02   7.8125000e-03   1.5625000e-02
  -2.3437500e-02  -3.1250000e-02  -7.8125000e-03  -1.5625000e-02  -3.9062500e-02  -7.8125000e-03  -7.8125000e-03  -7.8125000e-03
   0.0000000e+00   0.0000000e+00  -4.6875000e-02  -1.5625000e-02   3.1250000e-02   0.0000000e+00  -1.5625000e-02   0.0000000e+00
   0.0000000e+00   0.0000000e+00  -2.3437500e-02  -4.6875000e-02  -2.3437500e-02   2.3437500e-02   0.0000000e+00  -3.1250000e-02
  -7.8125000e-03   0.0000000e+00   0.0000000e+00   2.3437500e-02  -7.8125000e-03  -5.4687500e-02  -2.3437500e-02   0.0000000e+00
  -7.8125000e-03   1.5625000e-02   3.1250000e-02   3.1250000e-02   3.1250000e-02   3.9062500e-02  -3.9062500e-02   0.0000000e+00
   1.5625000e-02  -7.8125000e-03  -7.8125000e-03  -2.3437500e-02  -6.2500000e-02  -1.5625000e-02   7.8125000e-03  -7.8125000e-03
  -3.9062500e-02  -2.3437500e-02  -4.6875000e-02  -5.4687500e-02   0.0000000e+00   2.3437500e-02  -7.8125000e-03   0.0000000e+00
  -1.0156250e-01  -2.3437500e-02  -7.8125000e-03   0.0000000e+00  -7.8125000e-03   7.8125000e-03   0.0000000e+00  -3.9062500e-02
   1.1718750e-01   2.3437500e-02   0.0000000e+00  -2.3437500e-02  -7.8125000e-03  -3.9062500e-02  -7.8125000e-03   7.8125000e-03
   7.8125000e-03   0.0000000e+00   3.1250000e-02   4.6875000e-02   4.6875000e-02   5.4687500e-02   1.5625000e-02   3.1250000e-02
   1.5625000e-02   1.5625000e-02   2.3437500e-02   3.9062500e-02   1.5625000e-02  -7.8125000e-03   2.3437500e-02   7.8125000e-03
   7.8125000e-03  -1.5625000e-02  -3.9062500e-02  -4.6875000e-02  -1.5625000e-02  -4.6875000e-02  -2.3437500e-02  -7.8125000e-03
  -4.6875000e-02  -2.3437500e-02  -6.2500000e-02  -3.9062500e-02   1.5625000e-02  -7.8125000e-03   0.0000000e+00  -3.1250000e-02
  -2.3437500e-02  -1.5625000e-02   7.8125000e-03  -1.5625000e-02  -2.3437500e-02  -2.3437500e-02  -3.1250000e-02  -7.8125000e-03
  -1.5625000e-02   0.0000000e+00   5.4687500e-02   3.9062500e-02  -1.5625000e-02   2.3437500e-02  -1.5625000e-02  -1.5625000e-02
   7.8125000e-03   2.3437500e-02   3.9062500e-02   3.1250000e-02   3.1250000e-02   1.5625000e-02   3.1250000e-02   1.5625000e-02
  -1.5625000e-02   7.8125000e-03  -7.8125000e-03  -1.5625000e-02  -7.8125000e-03  -7.8125000e-03  -3.9062500e-02  -1.5625000e-02
  -7.8125000e-03   7.8125000e-03  -1.5625000e-02   7.8125000e-03   7.8125000e-03   7.8125000e-03   3.1250000e-02   0.0000000e+00
  -3.9062500e-02  -3.1250000e-02  -3.9062500e-02  -7.8125000e-02  -3.9062500e-02  -3.9062500e-02  -3.1250000e-02  -7.8125000e-03
   2.3437500e-02   0.0000000e+00  -7.8125000e-03  -1.5625000e-02  -2.3437500e-02  -1.5625000e-02   0.0000000e+00   0.0000000e+00
   0.0000000e+00   0.0000000e+00   0.0000000e+00   0.0000000e+00   7.8125000e-03  -2.3437500e-02  -4.6875000e-02  -7.8125000e-03
   0.0000000e+00  -1.5625000e-02   0.0000000e+00  -7.8125000e-03   7.8125000e-03   2.3437500e-02   0.0000000e+00   7.8125000e-03
   0.0000000e+00  -1.5625000e-02  -1.5625000e-02   2.3437500e-02  -1.5625000e-02   0.0000000e+00   7.8125000e-03   0.0000000e+00
   3.1250000e-02   0.0000000e+00   0.0000000e+00   7.8125000e-03   7.8125000e-03  -3.1250000e-02  -3.1250000e-02  -7.8125000e-03
   0.0000000e+00   2.3437500e-02   1.5625000e-02   0.0000000e+00  -1.5625000e-02   4.6875000e-02   4.6875000e-02   7.8125000e-03
  -9.3750000e-02  -3.9062500e-02  -1.5625000e-02   3.1250000e-02  -7.8125000e-03  -2.3437500e-02  -3.9062500e-02  -1.5625000e-02
   4.6875000e-02   2.3437500e-02  -7.8125000e-03  -6.2500000e-02  -1.5625000e-02  -2.3437500e-02  -1.5625000e-02   0.0000000e+00
  -2.3437500e-02   0.0000000e+00  -1.5625000e-02  -2.3437500e-02  -2.3437500e-02  -1.5625000e-02   1.5625000e-02  -2.3437500e-02
  -7.8125000e-03  -1.5625000e-02  -1.5625000e-02   2.3437500e-02  -7.8125000e-03  -2.3437500e-02  -2.3437500e-02  -1.5625000e-02
  -1.5625000e-02  -7.8125000e-03   7.8125000e-03  -3.1250000e-02  -1.5625000e-02   0.0000000e+00  -1.5625000e-02  -2.3437500e-02
   0.0000000e+00  -1.5625000e-02  -2.3437500e-02   2.3437500e-02   3.1250000e-02  -7.0312500e-02  -3.9062500e-02   0.0000000e+00
   0.0000000e+00  -7.8125000e-03  -1.5625000e-02  -1.5625000e-02  -7.8125000e-03   2.3437500e-02   2.3437500e-02   0.0000000e+00
  -1.5625000e-02  -7.8125000e-03   7.8125000e-03   7.8125000e-03   0.0000000e+00   2.3437500e-02   7.8125000e-03  -7.8125000e-03
  -2.3437500e-02  -7.8125000e-03  -1.5625000e-02  -1.5625000e-02  -7.8125000e-03   7.8125000e-03   2.3437500e-02  -1.5625000e-02
   3.9062500e-02   2.3437500e-02   0.0000000e+00  -7.8125000e-03  -7.8125000e-03  -8.5937500e-02  -5.4687500e-02  -7.8125000e-03
  -1.5625000e-02  -7.8125000e-03  -1.5625000e-02  -6.2500000e-02  -5.4687500e-02   1.5625000e-02   0.0000000e+00  -7.8125000e-03
  -2.3437500e-02  -3.1250000e-02  -5.4687500e-02  -4.6875000e-02  -7.8125000e-03  -1.5625000e-02  -7.8125000e-03  -2.3437500e-02
   2.3437500e-02  -7.8125000e-03  -1.5625000e-02  -7.8125000e-03  -7.8125000e-03   3.9062500e-02   1.5625000e-02  -7.8125000e-03
  -2.3437500e-02  -1.5625000e-02  -1.5625000e-02  -7.8125000e-03  -1.5625000e-02   1.5625000e-02  -2.3437500e-02  -7.8125000e-03
  -1.5625000e-02   7.8125000e-03   2.3437500e-02   7.8125000e-02   1.5625000e-02  -7.8125000e-03  -7.8125000e-03  -7.8125000e-03
  -2.3437500e-02  -7.8125000e-03   3.9062500e-02  -7.8125000e-03   7.8125000e-03   3.1250000e-02   3.1250000e-02   1.5625000e-02
   0.0000000e+00  -7.8125000e-03  -4.6875000e-02  -3.9062500e-02  -2.3437500e-02   7.8125000e-03   7.8125000e-03  -1.5625000e-02
  -3.1250000e-02  -7.8125000e-03   0.0000000e+00  -7.8125000e-03   0.0000000e+00  -1.5625000e-02  -7.8125000e-03  -2.3437500e-02
   3.1250000e-02   2.3437500e-02   7.8125000e-03   2.3437500e-02   1.5625000e-02  -2.3437500e-02  -1.5625000e-02   1.5625000e-02
  -7.8125000e-03   1.5625000e-02   0.0000000e+00   3.1250000e-02   2.3437500e-02   4.6875000e-02   3.9062500e-02   7.8125000e-03
   4.6875000e-02   2.3437500e-02   2.3437500e-02   3.9062500e-02   0.0000000e+00  -7.8125000e-03  -1.5625000e-02   1.5625000e-02
  -5.4687500e-02  -6.2500000e-02  -2.3437500e-02  -7.0312500e-02  -6.2500000e-02  -9.3750000e-02  -4.6875000e-02  -3.9062500e-02
   7.8125000e-03  -2.3437500e-02  -3.9062500e-02  -6.2500000e-02  -3.1250000e-02   3.1250000e-02   5.4687500e-02   2.3437500e-02
   7.8125000e-03   1.5625000e-02  -7.8125000e-03   1.5625000e-02   7.8125000e-03   7.8125000e-03   7.8125000e-03   7.8125000e-03
  -3.1250000e-02  -2.3437500e-02   0.0000000e+00   7.8125000e-03   0.0000000e+00   2.3437500e-02  -1.5625000e-02   0.0000000e+00
   3.1250000e-02   0.0000000e+00   1.5625000e-02   4.6875000e-02   1.5625000e-02   1.5625000e-02   0.0000000e+00   7.8125000e-03
  -1.5625000e-02   7.8125000e-03  -7.8125000e-03   0.0000000e+00  -7.8125000e-03  -2.3437500e-02  -7.8125000e-03  -2.3437500e-02
   1.5625000e-02   1.5625000e-02   2.3437500e-02   7.8125000e-03  -1.5625000e-02   1.5625000e-02   0.0000000e+00   0.0000000e+00
  -7.8125000e-03  -1.5625000e-02  -2.3437500e-02  -4.6875000e-02  -1.5625000e-02  -2.3437500e-02   0.0000000e+00  -1.5625000e-02
  -3.1250000e-02   0.0000000e+00   7.8125000e-03  -1.5625000e-02   7.8125000e-03   2.3437500e-02   7.8125000e-03   7.8125000e-03
  -7.8125000e-03  -2.3437500e-02  -1.5625000e-02   0.0000000e+00   0.0000000e+00   1.5625000e-02  -2.3437500e-02  -2.3437500e-02
  -1.5625000e-02  -2.3437500e-02  -1.5625000e-02   1.5625000e-02  -7.8125000e-03  -2.3437500e-02  -7.8125000e-03  -7.8125000e-03
   1.5625000e-02  -7.8125000e-03   0.0000000e+00  -1.5625000e-02   0.0000000e+00  -1.5625000e-02  -7.8125000e-03   0.0000000e+00
  -7.8125000e-03  -7.8125000e-03  -2.3437500e-02  -7.8125000e-03  -2.3437500e-02   3.1250000e-02   2.3437500e-02   7.8125000e-03
   3.9062500e-02  -7.8125000e-03   7.8125000e-03  -7.8125000e-03  -7.8125000e-03   2.3437500e-02   1.5625000e-02   2.3437500e-02
   7.8125000e-03  -3.1250000e-02  -7.8125000e-03  -2.3437500e-02   0.0000000e+00  -9.3750000e-02  -8.5937500e-02  -3.1250000e-02
   2.3437500e-02   1.5625000e-02   3.9062500e-02   2.3437500e-02   0.0000000e+00  -2.3437500e-02  -3.1250000e-02  -2.3437500e-02
   1.5625000e-02   7.8125000e-03   7.8125000e-03   1.5625000e-02   0.0000000e+00   4.6875000e-02   3.9062500e-02   7.8125000e-03
  -1.5625000e-02  -7.8125000e-03  -5.4687500e-02  -3.9062500e-02  -2.3437500e-02  -2.3437500e-02   7.8125000e-03  -2.3437500e-02
  -2.3437500e-02  -1.5625000e-02  -1.5625000e-02  -3.1250000e-02   1.5625000e-02  -1.5625000e-02  -2.3437500e-02   0.0000000e+00
   3.1250000e-02   1.5625000e-02   0.0000000e+00   7.8125000e-03   0.0000000e+00   0.0000000e+00   2.3437500e-02   1.5625000e-02
  -2.3437500e-02   3.1250000e-02   7.8125000e-03  -4.6875000e-02  -3.9062500e-02   1.5625000e-02  -7.8125000e-03  -7.8125000e-03
  -1.5625000e-02   7.8125000e-03  -1.5625000e-02   3.9062500e-02   3.9062500e-02  -2.3437500e-02  -2.3437500e-02   0.0000000e+00
  -7.8125000e-03  -3.1250000e-02  -3.1250000e-02  -3.1250000e-02  -3.9062500e-02   0.0000000e+00   1.5625000e-02   0.0000000e+00
  -2.3437500e-02  -7.8125000e-03  -7.8125000e-03  -7.8125000e-03  -7.8125000e-03  -7.8125000e-03  -1.5625000e-02  -7.8125000e-03
  -4.6875000e-02  -7.8125000e-03   3.1250000e-02   7.0312500e-02   0.0000000e+00   7.8125000e-03  -1.5625000e-02  -3.9062500e-02
   7.8125000e-02   4.6875000e-02   5.4687500e-02   1.5625000e-02  -7.8125000e-03  -8.5937500e-02   1.5625000e-02   3.9062500e-02
  -3.9062500e-02  -7.8125000e-03  -3.1250000e-02  -3.9062500e-02  -7.8125000e-03   1.3281250e-01   0.0000000e+00  -7.8125000e-03
   7.8125000e-03  -3.1250000e-02  -5.4687500e-02  -3.9062500e-02  -3.1250000e-02  -8.5937500e-02  -3.9062500e-02   7.8125000e-03
   3.1250000e-02   7.8125000e-03   0.0000000e+00   4.6875000e-02   1.5625000e-02  -1.5625000e-02  -1.5625000e-02  -7.8125000e-03
  -2.3437500e-02   7.8125000e-03   2.3437500e-02   1.5625000e-02   3.9062500e-02   0.0000000e+00  -1.5625000e-02  -3.9062500e-02
   7.8125000e-03   3.1250000e-02   4.6875000e-02   3.9062500e-02  -2.3437500e-02  -3.1250000e-02   2.3437500e-02   0.0000000e+00
   7.8125000e-03   0.0000000e+00  -2.3437500e-02  -4.6875000e-02  -3.1250000e-02   7.8125000e-03   1.5625000e-02  -1.5625000e-02
  -3.9062500e-02  -5.4687500e-02  -3.9062500e-02  -6.2500000e-02  -3.1250000e-02  -4.6875000e-02  -2.3437500e-02  -7.8125000e-03
   7.8125000e-03   0.0000000e+00   7.8125000e-03   1.5625000e-02  -7.8125000e-03   3.1250000e-02  -7.8125000e-03  -2.3437500e-02
  -2.3437500e-02   0.0000000e+00   2.3437500e-02   4.6875000e-02   3.9062500e-02   2.3437500e-02   3.1250000e-02   0.0000000e+00
   1.5625000e-02   0.0000000e+00  -4.6875000e-02  -1.5625000e-02   7.8125000e-03   7.8125000e-03   7.8125000e-03   7.8125000e-03
   1.5625000e-02  -7.8125000e-03   1.5625000e-02  -1.5625000e-02   0.0000000e+00  -1.5625000e-02   0.0000000e+00  -1.5625000e-02
  -3.9062500e-02  -1.5625000e-02  -2.3437500e-02   0.0000000e+00  -7.8125000e-03  -2.3437500e-02  -1.5625000e-02   1.5625000e-02
   0.0000000e+00  -2.3437500e-02  -1.5625000e-02   0.0000000e+00   7.8125000e-03  -2.3437500e-02  -2.3437500e-02  -2.3437500e-02
  -1.5625000e-02  -7.8125000e-03   2.3437500e-02   3.1250000e-02   7.8125000e-03   0.0000000e+00  -7.8125000e-03  -3.1250000e-02
   3.1250000e-02  -7.8125000e-03  -7.8125000e-03  -3.1250000e-02  -2.3437500e-02  -2.3437500e-02  -1.5625000e-02   2.3437500e-02
  -7.8125000e-03   0.0000000e+00   0.0000000e+00   0.0000000e+00   1.5625000e-02   3.9062500e-02   3.9062500e-02   0.0000000e+00
   3.1250000e-02   2.3437500e-02   7.8125000e-03  -7.8125000e-03  -7.8125000e-03   1.5625000e-02   2.3437500e-02   2.3437500e-02
  -3.9062500e-02  -7.8125000e-03   7.8125000e-03  -7.8125000e-03  -2.3437500e-02  -1.5625000e-02  -3.9062500e-02  -3.1250000e-02
  -7.8125000e-03  -7.8125000e-03  -2.3437500e-02   7.8125000e-03   7.8125000e-03  -3.1250000e-02   0.0000000e+00  -1.5625000e-02
   0.0000000e+00   1.5625000e-02   7.8125000e-03  -7.8125000e-03  -1.5625000e-02   7.8125000e-03  -7.8125000e-03  -7.8125000e-03
   3.1250000e-02   2.3437500e-02   0.0000000e+00  -7.8125000e-03   0.0000000e+00  -1.5625000e-02  -3.1250000e-02   1.5625000e-02
  -1.5625000e-02   7.8125000e-03   2.3437500e-02   5.4687500e-02   0.0000000e+00   2.3437500e-02   2.3437500e-02   0.0000000e+00
  -7.8125000e-03   0.0000000e+00  -2.3437500e-02  -4.6875000e-02   7.8125000e-03  -7.8125000e-03  -7.8125000e-03   0.0000000e+00
  -1.5625000e-02  -3.1250000e-02  -3.1250000e-02  -2.3437500e-02  -3.1250000e-02  -1.5625000e-02  -2.3437500e-02  -2.3437500e-02
  -7.8125000e-03  -2.3437500e-02  -7.8125000e-03   7.8125000e-03  -7.8125000e-03  -7.8125000e-03   0.0000000e+00  -7.8125000e-03
  -2.3437500e-02  -2.3437500e-02  -3.1250000e-02  -3.9062500e-02  -7.8125000e-03  -7.8125000e-03  -3.1250000e-02  -7.8125000e-03
   1.5625000e-02   7.8125000e-03   1.5625000e-02   3.1250000e-02  -1.5625000e-02  -7.8125000e-03  -7.8125000e-03  -1.5625000e-02
  -2.3437500e-02  -1.5625000e-02   1.5625000e-02   2.3437500e-02   1.5625000e-02   3.1250000e-02  -2.3437500e-02  -1.5625000e-02
   1.5625000e-02   7.8125000e-03   1.5625000e-02   7.8125000e-03  -1.5625000e-02  -2.3437500e-02   7.8125000e-03   0.0000000e+00
   7.8125000e-03  -1.5625000e-02   1.5625000e-02   7.8125000e-03   0.0000000e+00   7.8125000e-03  -7.8125000e-03  -7.8125000e-03
   0.0000000e+00   7.8125000e-03  -2.3437500e-02  -3.9062500e-02  -1.5625000e-02   0.0000000e+00   0.0000000e+00   7.8125000e-03
   4.6875000e-02   0.0000000e+00  -2.3437500e-02  -4.6875000e-02  -7.8125000e-03  -1.5625000e-02   2.3437500e-02   7.8125000e-03
  -7.8125000e-03   7.8125000e-03   2.3437500e-02   7.8125000e-03  -1.5625000e-02  -1.5625000e-02  -1.5625000e-02  -7.8125000e-03
  -1.5625000e-02   7.8125000e-03  -7.8125000e-03   3.9062500e-02   2.3437500e-02   0.0000000e+00  -7.8125000e-03   0.0000000e+00
  -3.9062500e-02  -2.3437500e-02   0.0000000e+00   0.0000000e+00   7.8125000e-03   7.8125000e-03   2.3437500e-02   0.0000000e+00
   0.0000000e+00   7.8125000e-03  -7.8125000e-03  -7.8125000e-03  -2.3437500e-02  -4.6875000e-02  -3.9062500e-02  -7.8125000e-03
  -4.6875000e-02  -2.3437500e-02  -3.1250000e-02  -3.9062500e-02   0.0000000e+00   7.8125000e-03   7.8125000e-03  -2.3437500e-02
   2.3437500e-02   0.0000000e+00   0.0000000e+00  -1.5625000e-02  -3.1250000e-02  -7.8125000e-02  -5.4687500e-02   0.0000000e+00
   1.5625000e-02  -7.8125000e-03  -7.8125000e-03   0.0000000e+00   7.8125000e-03   0.0000000e+00  -7.8125000e-03   0.0000000e+00
  -2.3437500e-02   7.8125000e-03   0.0000000e+00   0.0000000e+00  -7.8125000e-03  -1.5625000e-02   7.8125000e-03  -7.8125000e-03
  -3.9062500e-02  -7.8125000e-03   0.0000000e+00  -1.5625000e-02   1.5625000e-02   3.1250000e-02  -1.5625000e-02  -7.8125000e-03
   1.5625000e-02  -1.5625000e-02  -4.6875000e-02  -4.6875000e-02  -2.3437500e-02  -2.3437500e-02   3.9062500e-02   1.5625000e-02
  -3.9062500e-02  -3.1250000e-02   2.3437500e-02   4.6875000e-02  -7.8125000e-03   3.9062500e-02   7.8125000e-03  -7.8125000e-03
   7.0312500e-02   0.0000000e+00   3.9062500e-02  -1.5625000e-02   1.5625000e-02   2.3437500e-02   0.0000000e+00   2.3437500e-02
   2.3437500e-02  -7.8125000e-03  -1.5625000e-02  -1.5625000e-02   0.0000000e+00   1.5625000e-02   0.0000000e+00  -2.3437500e-02
  -7.8125000e-03  -3.1250000e-02  -2.3437500e-02  -6.2500000e-02  -5.4687500e-02  -6.2500000e-02  -3.9062500e-02  -2.3437500e-02
   0.0000000e+00   1.5625000e-02  -3.9062500e-02  -1.5625000e-02   7.8125000e-03  -1.5625000e-02   7.8125000e-03  -7.8125000e-03
  -3.9062500e-02   0.0000000e+00   7.8125000e-03   5.4687500e-02   1.5625000e-02   7.8125000e-03   0.0000000e+00   7.8125000e-03
  -1.5625000e-02  -1.5625000e-02   7.8125000e-03  -1.5625000e-02  -1.5625000e-02   1.5625000e-02   0.0000000e+00  -7.8125000e-03
  -3.1250000e-02  -7.8125000e-03   0.0000000e+00  -1.5625000e-02  -7.8125000e-03   6.2500000e-02   3.9062500e-02   7.8125000e-03
   2.3437500e-02   3.1250000e-02   3.1250000e-02   2.3437500e-02  -7.8125000e-03  -2.3437500e-02  -2.3437500e-02   7.8125000e-03
  -2.3437500e-02   7.8125000e-03   2.3437500e-02   3.1250000e-02  -1.5625000e-02  -7.8125000e-03   7.8125000e-03  -1.5625000e-02
  -1.5625000e-02  -3.1250000e-02  -7.8125000e-02  -6.2500000e-02   0.0000000e+00  -3.1250000e-02   0.0000000e+00  -7.8125000e-03
  -7.8125000e-03  -3.1250000e-02  -5.4687500e-02  -6.2500000e-02  -1.5625000e-02   2.3437500e-02  -2.3437500e-02  -7.8125000e-03
  -7.8125000e-03  -2.3437500e-02  -2.3437500e-02   0.0000000e+00  -7.8125000e-03  -4.6875000e-02  -3.9062500e-02  -1.5625000e-02
  -7.8125000e-03   0.0000000e+00  -3.9062500e-02  -3.1250000e-02  -7.8125000e-03   1.5625000e-02   7.8125000e-03  -7.8125000e-03
   3.9062500e-02   3.9062500e-02   6.2500000e-02   4.6875000e-02   1.5625000e-02  -7.8125000e-03   1.5625000e-02   3.1250000e-02
  -5.4687500e-02   0.0000000e+00   2.3437500e-02   7.0312500e-02   0.0000000e+00   4.6875000e-02   7.8125000e-03  -2.3437500e-02
   1.5625000e-02   7.8125000e-03  -2.3437500e-02  -7.0312500e-02  -1.5625000e-02  -7.8125000e-03  -2.3437500e-02  -7.8125000e-03
  -1.5625000e-02  -7.8125000e-03  -7.8125000e-03  -2.3437500e-02   0.0000000e+00   3.9062500e-02   3.1250000e-02   7.8125000e-03
  -7.8125000e-03  -1.5625000e-02  -1.5625000e-02   3.1250000e-02  -7.8125000e-03   0.0000000e+00   3.1250000e-02   0.0000000e+00
  -7.8125000e-03  -7.8125000e-03  -1.5625000e-02  -7.8125000e-03   0.0000000e+00  -3.1250000e-02  -3.1250000e-02  -1.5625000e-02
  -7.8125000e-03  -3.1250000e-02   7.8125000e-03  -2.3437500e-02  -3.9062500e-02   0.0000000e+00   1.5625000e-02  -1.5625000e-02
  -3.9062500e-02  -1.5625000e-02  -7.8125000e-03   1.5625000e-02   7.8125000e-03  -2.3437500e-02  -3.1250000e-02  -1.5625000e-02
   2.3437500e-02  -7.8125000e-03  -7.8125000e-03  -1.5625000e-02   2.3437500e-02  -7.8125000e-03   0.0000000e+00  -7.8125000e-03
  -7.8125000e-03   2.3437500e-02   2.3437500e-02   3.1250000e-02   7.8125000e-03  -2.3437500e-02  -1.5625000e-02  -7.8125000e-03
  -7.8125000e-03   7.8125000e-03  -7.8125000e-03   1.5625000e-02   2.3437500e-02   7.8125000e-03  -1.5625000e-02   0.0000000e+00
   2.3437500e-02  -7.8125000e-03  -3.9062500e-02  -3.1250000e-02  -7.8125000e-03  -1.5625000e-02   1.5625000e-02   3.1250000e-02
  -3.1250000e-02   0.0000000e+00   3.9062500e-02   0.0000000e+00  -3.9062500e-02   7.8125000e-03  -2.3437500e-02   0.0000000e+00
   0.0000000e+00  -1.5625000e-02  -2.3437500e-02   1.5625000e-02   4.6875000e-02  -2.3437500e-02  -1.5625000e-02   7.8125000e-03
  -7.8125000e-03  -2.3437500e-02  -2.3437500e-02  -3.9062500e-02  -1.5625000e-02  -2.3437500e-02   1.5625000e-02  -7.8125000e-03
  -3.1250000e-02  -2.3437500e-02   0.0000000e+00   0.0000000e+00  -3.1250000e-02   0.0000000e+00  -1.5625000e-02  -1.5625000e-02
   1.5625000e-02   1.5625000e-02   7.8125000e-03   2.3437500e-02  -1.5625000e-02  -2.3437500e-02  -3.1250000e-02  -1.5625000e-02
   2.3437500e-02   7.8125000e-03   3.1250000e-02  -7.8125000e-03  -2.3437500e-02   1.5625000e-02   1.5625000e-02  -2.3437500e-02
   0.0000000e+00   7.8125000e-03   1.5625000e-02   3.9062500e-02   0.0000000e+00   1.5625000e-02   7.8125000e-03   7.8125000e-03
  -1.5625000e-02   0.0000000e+00  -1.5625000e-02  -1.5625000e-02   0.0000000e+00  -1.5625000e-02  -7.8125000e-03  -7.8125000e-03
  -3.1250000e-02   0.0000000e+00  -1.5625000e-02   0.0000000e+00   0.0000000e+00  -2.3437500e-02  -7.8125000e-03  -7.8125000e-03
   3.1250000e-02  -7.8125000e-03  -2.3437500e-02  -3.9062500e-02  -3.1250000e-02  -7.8125000e-03  -3.1250000e-02   1.5625000e-02
  -3.1250000e-02  -2.3437500e-02   7.8125000e-03   0.0000000e+00  -3.9062500e-02  -7.8125000e-03  -7.8125000e-03  -7.8125000e-03
   2.3437500e-02   3.1250000e-02   0.0000000e+00   1.5625000e-02   7.8125000e-03   2.3437500e-02   0.0000000e+00   1.5625000e-02
  -7.8125000e-03  -3.1250000e-02  -1.5625000e-02  -2.3437500e-02   0.0000000e+00   1.5625000e-02   3.1250000e-02   7.8125000e-03
  -2.3437500e-02   0.0000000e+00  -3.1250000e-02  -1.5625000e-02   7.8125000e-03  -3.9062500e-02  -5.4687500e-02  -3.1250000e-02
  -1.5625000e-02  -7.8125000e-03  -1.5625000e-02   7.8125000e-03   7.8125000e-03   1.5625000e-02   3.9062500e-02   2.3437500e-02
   7.8125000e-03  -7.8125000e-03   7.8125000e-03   2.3437500e-02   1.5625000e-02  -3.1250000e-02  -1.5625000e-02  -3.1250000e-02
   0.0000000e+00   0.0000000e+00   7.8125000e-03   0.0000000e+00   1.5625000e-02   3.1250000e-02  -7.8125000e-03  -7.8125000e-03
  -2.3437500e-02  -1.5625000e-02  -1.5625000e-02  -7.0312500e-02  -5.4687500e-02  -5.4687500e-02  -2.3437500e-02  -7.8125000e-03
   1.5625000e-02   1.5625000e-02  -3.1250000e-02   3.9062500e-02   7.8125000e-03  -9.3750000e-02  -3.1250000e-02   0.0000000e+00
  -1.5625000e-02  -2.3437500e-02  -1.5625000e-02   0.0000000e+00   0.0000000e+00   6.2500000e-02   4.6875000e-02  -7.8125000e-03
  -3.1250000e-02  -7.8125000e-03   2.3437500e-02   7.8125000e-03  -3.1250000e-02  -3.9062500e-02  -3.1250000e-02  -4.6875000e-02
  -2.3437500e-02  -7.8125000e-03   0.0000000e+00   0.0000000e+00   4.6875000e-02   7.8125000e-03  -1.5625000e-02  -7.8125000e-03
   6.2500000e-02   7.8125000e-03  -7.8125000e-03  -1.5625000e-02  -2.3437500e-02   7.8125000e-03   1.5625000e-02   1.5625000e-02
   0.0000000e+00   3.1250000e-02  -2.3437500e-02  -1.5625000e-02   7.8125000e-03  -3.9062500e-02  -7.8125000e-03   0.0000000e+00
   7.8125000e-03   1.5625000e-02   7.8125000e-03   3.9062500e-02   0.0000000e+00  -1.5625000e-02  -3.1250000e-02   0.0000000e+00
  -3.9062500e-02  -7.8125000e-03   1.5625000e-02   3.1250000e-02   0.0000000e+00  -7.8125000e-03   0.0000000e+00  -1.5625000e-02
  -5.4687500e-02  -3.9062500e-02  -4.6875000e-02  -6.2500000e-02  -5.4687500e-02   7.8125000e-03  -7.8125000e-03  -2.3437500e-02
   2.3437500e-02   7.8125000e-03   1.5625000e-02  -7.8125000e-03  -1.5625000e-02  -7.8125000e-03  -1.5625000e-02   7.8125000e-03
   3.1250000e-02  -3.1250000e-02  -3.1250000e-02  -7.8125000e-03  -7.8125000e-03   7.8125000e-03  -3.9062500e-02   0.0000000e+00
   0.0000000e+00   1.5625000e-02   3.9062500e-02   9.3750000e-02   3.1250000e-02   0.0000000e+00   1.5625000e-02   7.8125000e-03
  -4.6875000e-02   0.0000000e+00   0.0000000e+00  -7.0312500e-02  -7.0312500e-02   7.8125000e-03   7.8125000e-03  -7.8125000e-03
  -3.1250000e-02  -3.9062500e-02  -7.8125000e-02  -3.9062500e-02   0.0000000e+00   1.5625000e-02  -2.3437500e-02  -5.4687500e-02
